#Intensity_unit=cps
#Attenuator_coefficient=1.0000
4.0000 5401.0722
4.0100 5515.9450
4.0200 5866.7790
4.0300 6132.4106
4.0400 5815.2838
4.0500 5551.0116
4.0600 5352.7058
4.0700 4958.2108
4.0800 5521.6970
4.0900 5437.2522
4.1000 5329.7368
4.1100 5482.2704
4.1200 5276.9796
4.1300 5458.6950
4.1400 5227.7018
4.1500 5678.7440
4.1600 5607.3486
4.1700 5361.0250
4.1800 5689.8626
4.1900 5456.1402
4.2000 5577.5274
4.2100 5354.5374
4.2200 5212.2502
4.2300 5431.2922
4.2400 5042.2282
4.2500 4927.4088
4.2600 5086.6974
4.2700 5156.6926
4.2800 4654.6702
4.2900 4982.0420
4.3000 5626.5024
4.3100 5018.0024
4.3200 4856.1778
4.3300 4949.8784
4.3400 5167.8762
4.3500 5193.8558
4.3600 5084.4614
4.3700 4993.5846
4.3800 4908.4950
4.3900 5229.0852
4.4000 4765.6444
4.4100 5431.9164
4.4200 4744.6986
4.4300 5168.8330
4.4400 4850.9278
4.4500 4514.3936
4.4600 4410.8190
4.4700 4899.8382
4.4800 5149.3382
4.4900 5059.4518
4.5000 5097.4472
4.5100 4954.1998
4.5200 5253.5380
4.5300 5141.5644
4.5400 5039.2416
4.5500 4503.9916
4.5600 4139.2918
4.5700 4535.8704
4.5800 4802.8218
4.5900 4584.6608
4.6000 4550.8200
4.6100 5035.7478
4.6200 4557.9132
4.6300 4266.8946
4.6400 4547.9232
4.6500 4844.0252
4.6600 4759.9126
4.6700 5182.1732
4.6800 4866.2038
4.6900 4821.5104
4.7000 4497.0612
4.7100 4844.7088
4.7200 4551.2894
4.7300 4698.6358
4.7400 4863.9846
4.7500 4768.4666
4.7600 4988.7268
4.7700 4373.9522
4.7800 4682.2672
4.7900 4756.9886
4.8000 4658.9426
4.8100 4553.9098
4.8200 4290.2970
4.8300 4322.6690
4.8400 4309.4640
4.8500 4463.0148
4.8600 5147.3404
4.8700 4163.5544
4.8800 4167.0172
4.8900 4768.5720
4.9000 4752.2420
4.9100 4901.0534
4.9200 4511.5932
4.9300 4099.5702
4.9400 4586.3338
4.9500 4218.7912
4.9600 4196.7732
4.9700 4325.1012
4.9800 4414.1260
4.9900 4407.8700
5.0000 4982.0058
5.0100 4040.9020
5.0200 3694.9090
5.0300 4218.6614
5.0400 4334.8018
5.0500 4764.4510
5.0600 4808.9864
5.0700 4429.1758
5.0800 4687.6892
5.0900 4812.5900
5.1000 4419.8136
5.1100 4591.4082
5.1200 4421.4778
5.1300 4287.8434
5.1400 4061.5916
5.1500 3776.6952
5.1600 3716.0158
5.1700 3772.0732
5.1800 4212.5066
5.1900 4189.5396
5.2000 3674.9824
5.2100 3664.5000
5.2200 4222.9516
5.2300 4203.8226
5.2400 4090.5810
5.2500 4448.8484
5.2600 4272.2560
5.2700 4236.8982
5.2800 4306.3756
5.2900 3916.8870
5.3000 4008.2150
5.3100 4207.7958
5.3200 4533.6492
5.3300 4102.7446
5.3400 4287.5326
5.3500 3971.7674
5.3600 4082.0002
5.3700 3925.1476
5.3800 4199.2338
5.3900 3828.5598
5.4000 4209.4490
5.4100 4138.7560
5.4200 3865.1164
5.4300 4217.6104
5.4400 3877.1978
5.4500 3808.2680
5.4600 4391.9342
5.4700 4043.9276
5.4800 3630.4092
5.4900 3757.7444
5.5000 4272.7366
5.5100 4437.7116
5.5200 3632.8160
5.5300 4209.0410
5.5400 3961.8306
5.5500 4229.3636
5.5600 4012.5184
5.5700 3940.8244
5.5800 3918.6432
5.5900 3963.8364
5.6000 4413.0594
5.6100 4246.7600
5.6200 3715.4542
5.6300 3434.7598
5.6400 3835.5724
5.6500 4027.8348
5.6600 3708.8050
5.6700 3891.6512
5.6800 3452.5026
5.6900 4523.5992
5.7000 4168.5806
5.7100 4096.8870
5.7200 3915.0226
5.7300 3709.5682
5.7400 3506.8744
5.7500 3731.8598
5.7600 3932.9450
5.7700 3648.4126
5.7800 3453.7490
5.7900 3602.3128
5.8000 4056.8772
5.8100 3807.3982
5.8200 3294.0898
5.8300 3692.8700
5.8400 3548.9222
5.8500 3638.2882
5.8600 4007.6128
5.8700 3568.0760
5.8800 3592.2308
5.8900 3213.0522
5.9000 3600.5934
5.9100 3514.2558
5.9200 3621.7306
5.9300 3083.9230
5.9400 3242.4294
5.9500 3501.4168
5.9600 3456.1322
5.9700 4049.8470
5.9800 4093.0104
5.9900 3584.6824
6.0000 4054.1826
6.0100 3619.0362
6.0200 3295.4312
6.0300 4151.4924
6.0400 3285.9680
6.0500 3368.4692
6.0600 3129.7122
6.0700 3445.9164
6.0800 3426.2808
6.0900 3528.4380
6.1000 2979.6104
6.1100 3665.7034
6.1200 3809.6884
6.1300 3404.9406
6.1400 3275.7780
6.1500 3990.0630
6.1600 3228.9610
6.1700 3497.5240
6.1800 3996.0900
6.1900 3584.5362
6.2000 3368.4342
6.2100 3506.6290
6.2200 3337.5618
6.2300 3418.2610
6.2400 3527.1932
6.2500 3694.7344
6.2600 3517.3218
6.2700 3688.5916
6.2800 3343.2262
6.2900 3500.5620
6.3000 3333.7554
6.3100 3204.7992
6.3200 3310.0202
6.3300 3232.3032
6.3400 3501.2698
6.3500 3449.4486
6.3600 3137.3662
6.3700 3497.0848
6.3800 3628.9634
6.3900 3587.6864
6.4000 3192.5092
6.4100 3717.7834
6.4200 3115.5088
6.4300 3204.4242
6.4400 3451.0898
6.4500 3526.4710
6.4600 3066.9668
6.4700 3399.6862
6.4800 3892.4400
6.4900 3400.4366
6.5000 3421.9128
6.5100 3314.2098
6.5200 3049.2704
6.5300 3084.6022
6.5400 3322.8356
6.5500 3200.0208
6.5600 3234.1800
6.5700 3125.9608
6.5800 3068.4290
6.5900 3889.8488
6.6000 3305.0810
6.6100 3092.7930
6.6200 3426.8488
6.6300 3223.9130
6.6400 3153.8276
6.6500 3274.0164
6.6600 2839.5646
6.6700 2980.8556
6.6800 3249.8466
6.6900 2914.7964
6.7000 3076.9172
6.7100 3439.9646
6.7200 2922.7172
6.7300 2815.3012
6.7400 2803.8950
6.7500 3517.8042
6.7600 3394.0524
6.7700 3014.9686
6.7800 3252.9358
6.7900 3285.7902
6.8000 2691.3380
6.8100 2934.6952
6.8200 3136.1346
6.8300 3082.1968
6.8400 2833.2528
6.8500 2681.8430
6.8600 3042.9678
6.8700 3021.0110
6.8800 2850.3350
6.8900 2891.5840
6.9000 2783.9716
6.9100 3008.1594
6.9200 2925.4036
6.9300 2833.3432
6.9400 2888.1312
6.9500 3239.5538
6.9600 2647.9118
6.9700 2965.9312
6.9800 2865.4898
6.9900 2645.9048
7.0000 3060.3724
7.0100 2978.9568
7.0200 2556.4492
7.0300 3297.0078
7.0400 2994.1740
7.0500 3265.0418
7.0600 2364.7008
7.0700 2967.9502
7.0800 3249.6506
7.0900 3204.0902
7.1000 2775.6304
7.1100 3293.1180
7.1200 2888.6556
7.1300 2583.2018
7.1400 2512.8774
7.1500 3245.9658
7.1600 2654.8304
7.1700 3070.5282
7.1800 3314.4928
7.1900 2711.3184
7.2000 2935.5570
7.2100 2991.4696
7.2200 2821.5822
7.2300 2914.5518
7.2400 2532.3170
7.2500 2922.6248
7.2600 2659.2402
7.2700 2602.8142
7.2800 2509.6484
7.2900 2694.7484
7.3000 2647.0296
7.3100 2594.7798
7.3200 2777.1898
7.3300 2717.4710
7.3400 2648.5400
7.3500 2521.6776
7.3600 2871.7644
7.3700 2597.9872
7.3800 2694.7414
7.3900 2723.2102
7.4000 2777.6680
7.4100 3087.1898
7.4200 2448.4212
7.4300 2521.3128
7.4400 2504.1832
7.4500 2398.8584
7.4600 2494.9460
7.4700 2646.7140
7.4800 2735.8558
7.4900 2896.1318
7.5000 2801.0612
7.5100 2408.6004
7.5200 2752.0798
7.5300 2764.8128
7.5400 2211.7758
7.5500 2302.0154
7.5600 2578.0634
7.5700 2597.6904
7.5800 2851.7768
7.5900 2745.3992
7.6000 2390.2882
7.6100 2746.5934
7.6200 2829.5702
7.6300 2600.8774
7.6400 2365.7282
7.6500 3035.7712
7.6600 2568.1274
7.6700 2219.3014
7.6800 2230.1316
7.6900 2190.4846
7.7000 2602.3250
7.7100 2532.2598
7.7200 2312.5608
7.7300 2597.5734
7.7400 3011.7028
7.7500 2503.1934
7.7600 2278.5266
7.7700 2827.1448
7.7800 2278.1038
7.7900 2420.8618
7.8000 2630.3110
7.8100 2444.8682
7.8200 2644.6192
7.8300 2849.0160
7.8400 2401.7568
7.8500 2832.8346
7.8600 2641.6370
7.8700 2492.7182
7.8800 2940.1524
7.8900 2562.2208
7.9000 2576.4292
7.9100 2648.3080
7.9200 2468.2226
7.9300 2403.1004
7.9400 2637.0254
7.9500 2822.5690
7.9600 2620.5048
7.9700 2085.7124
7.9800 2619.1558
7.9900 2154.2888
8.0000 2601.6432
8.0100 2435.2134
8.0200 2842.1928
8.0300 2305.8494
8.0400 2220.6148
8.0500 2835.8596
8.0600 2644.6818
8.0700 2527.1294
8.0800 2480.6898
8.0900 2668.0662
8.1000 2461.0494
8.1100 2688.1442
8.1200 2414.9000
8.1300 2363.0374
8.1400 2599.1796
8.1500 2311.3366
8.1600 1981.3106
8.1700 2393.6930
8.1800 2204.0172
8.1900 2494.7190
8.2000 2192.8298
8.2100 2495.7944
8.2200 2100.3458
8.2300 2086.5288
8.2400 2514.3708
8.2500 2266.7272
8.2600 2460.1440
8.2700 2223.2654
8.2800 2413.7192
8.2900 2411.6242
8.3000 2669.4750
8.3100 2292.8064
8.3200 2420.3310
8.3300 2056.2140
8.3400 2260.9402
8.3500 2343.3802
8.3600 1996.2930
8.3700 2251.2614
8.3800 2281.0222
8.3900 2308.3806
8.4000 1911.1964
8.4100 2241.0780
8.4200 2030.1958
8.4300 2312.2156
8.4400 2476.4724
8.4500 2284.4610
8.4600 2184.4348
8.4700 2421.1182
8.4800 2549.3784
8.4900 2501.1110
8.5000 2061.9056
8.5100 2659.0080
8.5200 2235.4742
8.5300 2427.2904
8.5400 2467.2180
8.5500 2249.5420
8.5600 2010.1328
8.5700 2225.7596
8.5800 2246.9676
8.5900 2477.3480
8.6000 1951.1768
8.6100 2304.6542
8.6200 1804.5880
8.6300 2146.9552
8.6400 2102.4526
8.6500 2227.4872
8.6600 2582.6662
8.6700 2196.4842
8.6800 2553.0826
8.6900 2043.6838
8.7000 2356.7980
8.7100 2058.7496
8.7200 2187.0588
8.7300 1783.5592
8.7400 1993.8658
8.7500 2053.5402
8.7600 2149.2274
8.7700 2257.4790
8.7800 2026.2180
8.7900 2312.7096
8.8000 2313.8150
8.8100 2022.0332
8.8200 1725.2440
8.8300 2192.3852
8.8400 2140.5462
8.8500 1929.4866
8.8600 2097.4284
8.8700 2012.2558
8.8800 2024.0052
8.8900 2125.3524
8.9000 2367.7808
8.9100 1941.7474
8.9200 1927.5600
8.9300 1925.7652
8.9400 1914.9720
8.9500 1759.0288
8.9600 2287.1514
8.9700 2355.3972
8.9800 2216.9828
8.9900 1956.0068
9.0000 1978.8202
9.0100 1864.3294
9.0200 2156.4960
9.0300 1942.5454
9.0400 2059.6530
9.0500 2086.5730
9.0600 1850.3808
9.0700 1702.4612
9.0800 1792.6600
9.0900 2015.0136
9.1000 1675.5758
9.1100 1808.0366
9.1200 2258.2136
9.1300 1839.5460
9.1400 1993.8326
9.1500 1715.1146
9.1600 1750.5874
9.1700 2118.1888
9.1800 2176.2878
9.1900 1970.6956
9.2000 1568.0786
9.2100 2002.6140
9.2200 1948.4872
9.2300 1840.7956
9.2400 1961.9628
9.2500 1822.1798
9.2600 1901.8102
9.2700 1753.3012
9.2800 1848.9796
9.2900 1925.3612
9.3000 2029.5444
9.3100 1830.1790
9.3200 1724.0238
9.3300 1965.4862
9.3400 1889.7352
9.3500 1699.1560
9.3600 1919.3734
9.3700 2009.5794
9.3800 1645.5050
9.3900 2030.1588
9.4000 1818.3908
9.4100 1920.3468
9.4200 1937.3936
9.4300 2424.1550
9.4400 1922.5674
9.4500 1624.8550
9.4600 1717.0548
9.4700 1843.8744
9.4800 1660.6288
9.4900 1730.7758
9.5000 1963.6536
9.5100 1802.8442
9.5200 1747.9080
9.5300 1720.1770
9.5400 1901.5572
9.5500 1753.9710
9.5600 1917.8276
9.5700 1672.0170
9.5800 2002.9340
9.5900 1848.1858
9.6000 2162.8906
9.6100 2094.3398
9.6200 1433.9352
9.6300 1815.1274
9.6400 2453.6062
9.6500 1579.3116
9.6600 2153.7928
9.6700 1853.4686
9.6800 1932.7730
9.6900 1795.8338
9.7000 1725.1554
9.7100 1916.4870
9.7200 2174.9786
9.7300 1750.6538
9.7400 1439.2384
9.7500 1445.6228
9.7600 1700.8548
9.7700 2159.5550
9.7800 1973.4576
9.7900 1741.9480
9.8000 1949.5024
9.8100 1831.3256
9.8200 1927.6706
9.8300 1618.9904
9.8400 1724.3722
9.8500 1353.4682
9.8600 2044.6436
9.8700 1720.4692
9.8800 1878.1864
9.8900 1993.9722
9.9000 1836.0446
9.9100 1532.8174
9.9200 1530.0304
9.9300 1544.1154
9.9400 2044.1118
9.9500 1614.0896
9.9600 1892.4336
9.9700 1633.1780
9.9800 1615.0558
9.9900 1895.5404
10.0000 1602.7454
10.0100 1726.0392
10.0200 1670.5166
10.0300 1487.3756
10.0400 1521.1954
10.0500 1807.3304
10.0600 1692.1858
10.0700 1514.6800
10.0800 1983.0500
10.0900 1564.6812
10.1000 1275.9658
10.1100 1655.3138
10.1200 1781.4028
10.1300 1821.7476
10.1400 1763.3374
10.1500 1477.3586
10.1600 1331.1066
10.1700 1758.8604
10.1800 1904.8906
10.1900 2064.6916
10.2000 1633.2642
10.2100 1682.8100
10.2200 1492.9384
10.2300 1738.0522
10.2400 1657.0786
10.2500 1508.0402
10.2600 1767.1980
10.2700 1778.6386
10.2800 1483.5916
10.2900 1500.2998
10.3000 1634.8628
10.3100 1759.5768
10.3200 1539.7716
10.3300 1761.3640
10.3400 1659.0662
10.3500 1594.2532
10.3600 1665.3634
10.3700 1514.5754
10.3800 2170.7300
10.3900 1268.7188
10.4000 1476.7754
10.4100 2153.2666
10.4200 1932.8626
10.4300 1321.0156
10.4400 1642.4978
10.4500 1696.3010
10.4600 1453.2690
10.4700 1622.0722
10.4800 1313.0360
10.4900 1690.3846
10.5000 1950.6978
10.5100 1836.0550
10.5200 1643.0880
10.5300 1634.3558
10.5400 1371.5340
10.5500 1535.2334
10.5600 1299.8470
10.5700 1339.2304
10.5800 1364.0240
10.5900 1317.4630
10.6000 1534.8566
10.6100 1614.3414
10.6200 1695.4694
10.6300 1367.2770
10.6400 1335.7144
10.6500 1581.4030
10.6600 1413.5880
10.6700 1419.7954
10.6800 1560.0722
10.6900 1430.8566
10.7000 1729.4616
10.7100 1544.5196
10.7200 1332.6922
10.7300 1372.5686
10.7400 1456.4502
10.7500 1414.1928
10.7600 1604.5252
10.7700 1223.5198
10.7800 1553.3406
10.7900 1656.4798
10.8000 1480.7466
10.8100 1857.4424
10.8200 1664.4360
10.8300 1573.8762
10.8400 1752.3928
10.8500 1392.0730
10.8600 1133.8256
10.8700 1555.8630
10.8800 1337.9526
10.8900 1436.4476
10.9000 1395.7806
10.9100 1378.7958
10.9200 1573.0668
10.9300 1544.3130
10.9400 1498.1160
10.9500 1238.2822
10.9600 1415.3256
10.9700 1559.6908
10.9800 1496.4010
10.9900 1713.7902
11.0000 1559.0248
11.0100 1513.0706
11.0200 1441.4994
11.0300 1784.4652
11.0400 1250.3954
11.0500 1361.9488
11.0600 1310.7860
11.0700 1593.2426
11.0800 1719.4070
11.0900 1476.5848
11.1000 1480.7160
11.1100 1291.7030
11.1200 1435.1506
11.1300 1305.5716
11.1400 1662.4894
11.1500 1542.8508
11.1600 1361.7738
11.1700 1116.1768
11.1800 1729.1136
11.1900 1564.3606
11.2000 1535.8338
11.2100 1493.5044
11.2200 1708.3642
11.2300 1309.8806
11.2400 1591.6048
11.2500 1282.3512
11.2600 1160.0294
11.2700 1346.8252
11.2800 1232.0456
11.2900 1581.7698
11.3000 1379.4756
11.3100 1633.0462
11.3200 1448.2134
11.3300 1733.5376
11.3400 1434.3996
11.3500 1784.1260
11.3600 1572.4318
11.3700 1258.6630
11.3800 1228.7512
11.3900 1343.0818
11.4000 1785.9678
11.4100 1697.7616
11.4200 1189.0250
11.4300 1492.7932
11.4400 1405.1202
11.4500 1337.3124
11.4600 1320.2984
11.4700 1790.4404
11.4800 1673.3222
11.4900 1238.5948
11.5000 1487.2464
11.5100 1599.6590
11.5200 1868.5092
11.5300 1189.3322
11.5400 1461.7782
11.5500 1347.8606
11.5600 1469.1468
11.5700 1305.9070
11.5800 1292.2986
11.5900 1755.6266
11.6000 1720.4524
11.6100 1442.5484
11.6200 1569.5112
11.6300 1602.7714
11.6400 1280.4228
11.6500 1347.0802
11.6600 1607.9098
11.6700 1259.6032
11.6800 1368.8092
11.6900 1151.7560
11.7000 1388.1984
11.7100 1322.0462
11.7200 1757.7628
11.7300 1500.8964
11.7400 1466.7090
11.7500 1659.7774
11.7600 1289.1958
11.7700 1659.5994
11.7800 1570.9664
11.7900 1253.7502
11.8000 1353.4482
11.8100 1567.8144
11.8200 1436.9880
11.8300 1256.3444
11.8400 1388.4048
11.8500 1624.5896
11.8600 1450.5552
11.8700 1270.8066
11.8800 1307.7406
11.8900 1518.6120
11.9000 1617.6168
11.9100 1410.2294
11.9200 1530.8280
11.9300 1565.1232
11.9400 1330.7610
11.9500 1600.4622
11.9600 1647.6502
11.9700 1221.4660
11.9800 1364.9734
11.9900 1547.4302
12.0000 1492.9664
12.0100 1506.1856
12.0200 1172.7096
12.0300 1331.3482
12.0400 1384.0418
12.0500 1380.6550
12.0600 1259.0844
12.0700 1301.2476
12.0800 1721.5154
12.0900 1513.7186
12.1000 1040.9056
12.1100 1526.0178
12.1200 1222.8046
12.1300 1199.1176
12.1400 1338.3242
12.1500 1212.6234
12.1600 1715.1500
12.1700 1465.7670
12.1800 1253.4684
12.1900 1082.0810
12.2000 1414.2950
12.2100 1514.5040
12.2200 1723.8096
12.2300 1257.3568
12.2400 1411.0182
12.2500 1418.8614
12.2600 1372.4554
12.2700 1349.0438
12.2800 1528.0110
12.2900 1339.8822
12.3000 1415.0962
12.3100 1433.4042
12.3200 1332.1968
12.3300 1473.4138
12.3400 1133.6548
12.3500 1136.8804
12.3600 1432.3474
12.3700 1185.2962
12.3800 1518.4804
12.3900 1362.5848
12.4000 1395.5432
12.4100 1113.7720
12.4200 1230.5942
12.4300 1430.8316
12.4400 1270.7560
12.4500 1258.0516
12.4600 1359.1594
12.4700 1008.6376
12.4800 1475.2068
12.4900 1331.3532
12.5000 1413.5052
12.5100 1093.7280
12.5200 1336.9806
12.5300 1527.5446
12.5400 1400.7746
12.5500 1515.1054
12.5600 1400.1286
12.5700 1148.6812
12.5800 1450.2480
12.5900 1473.1756
12.6000 1043.9080
12.6100 1169.1820
12.6200 1447.9670
12.6300 1013.9182
12.6400 1242.5112
12.6500 1215.7030
12.6600 1142.6206
12.6700 1143.0028
12.6800 1198.0336
12.6900 1179.6410
12.7000 1431.2662
12.7100 1125.5216
12.7200 1353.9904
12.7300 1200.3156
12.7400 1241.3866
12.7500 1317.5754
12.7600 1514.9116
12.7700 1700.1646
12.7800 1699.8734
12.7900 1334.5826
12.8000 1397.2788
12.8100 1517.9020
12.8200 1097.3186
12.8300 1091.8680
12.8400 1516.4658
12.8500 1479.0346
12.8600 1605.3384
12.8700 1045.5844
12.8800 1627.7522
12.8900 1548.2334
12.9000 1306.7864
12.9100 1186.8162
12.9200 1326.7968
12.9300 1336.3148
12.9400 1366.0312
12.9500 1421.2028
12.9600 1269.5148
12.9700 1256.9892
12.9800 1520.3918
12.9900 1105.7610
13.0000 1035.2206
13.0100 1186.5198
13.0200 1234.1946
13.0300 1340.4544
13.0400 1622.1336
13.0500 1453.5494
13.0600 1588.6192
13.0700 1351.0226
13.0800 1358.3678
13.0900 1168.9134
13.1000 1133.2514
13.1100 1265.8180
13.1200 1427.7102
13.1300 1532.0170
13.1400 1343.6566
13.1500 1507.1336
13.1600 1402.9798
13.1700 1472.8056
13.1800 1290.6890
13.1900 1437.1370
13.2000 1470.4872
13.2100 1404.7090
13.2200 1523.8062
13.2300 1302.5128
13.2400 1444.7456
13.2500 1242.4998
13.2600 1357.2124
13.2700 1590.6970
13.2800 1438.1758
13.2900 1112.1650
13.3000 1747.8770
13.3100 1564.7094
13.3200 1457.1582
13.3300 1499.8106
13.3400 1399.8512
13.3500 1174.3186
13.3600 1609.4154
13.3700 1418.8560
13.3800 1276.4064
13.3900 1540.3056
13.4000 1323.0532
13.4100 1145.7418
13.4200 1499.6926
13.4300 2146.6696
13.4400 1407.8946
13.4500 1494.5314
13.4600 1617.5980
13.4700 1336.8264
13.4800 1396.9176
13.4900 1592.3330
13.5000 1678.2666
13.5100 1663.2592
13.5200 1130.4730
13.5300 1399.7048
13.5400 1652.5918
13.5500 1934.6866
13.5600 1911.5990
13.5700 1991.0664
13.5800 1754.8082
13.5900 1912.7666
13.6000 2059.9418
13.6100 2017.9714
13.6200 2101.8072
13.6300 1963.7892
13.6400 1699.0516
13.6500 2050.5490
13.6600 1787.9058
13.6700 1611.9754
13.6800 2085.8528
13.6900 2004.7688
13.7000 1763.6924
13.7100 1862.5162
13.7200 1844.7800
13.7300 2020.1260
13.7400 2149.9626
13.7500 1938.4248
13.7600 2213.3378
13.7700 2068.0048
13.7800 1982.3856
13.7900 1723.1396
13.8000 1937.1078
13.8100 1669.3978
13.8200 2111.4334
13.8300 2004.4120
13.8400 2480.8692
13.8500 1929.1750
13.8600 2019.0214
13.8700 2152.6444
13.8800 2505.0594
13.8900 2633.4094
13.9000 2467.5568
13.9100 2615.7904
13.9200 2349.9046
13.9300 3148.7758
13.9400 3053.5204
13.9500 3386.0224
13.9600 3128.6524
13.9700 3504.1714
13.9800 3692.5226
13.9900 3851.6446
14.0000 4078.5570
14.0100 4586.6414
14.0200 4717.2094
14.0300 4806.1926
14.0400 5411.2778
14.0500 6081.2520
14.0600 6922.6298
14.0700 6616.9194
14.0800 7638.2116
14.0900 8764.5346
14.1000 9522.9960
14.1100 11150.6418
14.1200 12766.7674
14.1300 14209.0372
14.1400 15905.5552
14.1500 17669.1284
14.1600 20457.2794
14.1700 20837.8112
14.1800 24270.2840
14.1900 26344.2586
14.2000 27447.6990
14.2100 28313.9058
14.2200 29221.2484
14.2300 28166.0990
14.2400 27280.1128
14.2500 25248.6674
14.2600 25456.2886
14.2700 22067.5618
14.2800 18668.8578
14.2900 16230.4240
14.3000 14171.1538
14.3100 11732.8838
14.3200 10631.6692
14.3300 8523.2972
14.3400 7789.5264
14.3500 7008.9706
14.3600 6103.0410
14.3700 5585.8180
14.3800 4979.6066
14.3900 4636.4496
14.4000 4855.1040
14.4100 4304.3060
14.4200 4315.2318
14.4300 3654.9088
14.4400 3520.6958
14.4500 3391.5772
14.4600 3167.7468
14.4700 2630.9038
14.4800 2367.1918
14.4900 2410.4554
14.5000 2371.4836
14.5100 1868.7094
14.5200 1852.7398
14.5300 1948.6962
14.5400 2171.2952
14.5500 1513.9940
14.5600 1821.6622
14.5700 2040.3500
14.5800 1984.0104
14.5900 1603.6544
14.6000 1748.9904
14.6100 1553.2918
14.6200 1501.5664
14.6300 1739.8368
14.6400 1436.1566
14.6500 1564.1400
14.6600 1560.7628
14.6700 1352.5166
14.6800 1678.3546
14.6900 1416.6106
14.7000 1515.6842
14.7100 1538.0888
14.7200 1450.7390
14.7300 1382.3144
14.7400 1502.8042
14.7500 1672.4840
14.7600 1539.7828
14.7700 1287.2874
14.7800 1444.2680
14.7900 1545.1062
14.8000 1428.4044
14.8100 1181.8772
14.8200 1276.4170
14.8300 1171.4202
14.8400 1123.3726
14.8500 1209.1862
14.8600 1003.2588
14.8700 1432.5230
14.8800 1270.8462
14.8900 1481.1406
14.9000 1169.3106
14.9100 889.4232
14.9200 1093.6418
14.9300 1572.5596
14.9400 1321.3584
14.9500 1444.1046
14.9600 1284.3208
14.9700 937.4226
14.9800 923.3792
14.9900 1201.0950
15.0000 1228.8116
15.0100 1360.2386
15.0200 1317.8258
15.0300 1425.2464
15.0400 1548.3086
15.0500 1119.1230
15.0600 1302.3048
15.0700 1189.8682
15.0800 1238.8140
15.0900 1479.8684
15.1000 1243.5596
15.1100 906.2632
15.1200 1063.4038
15.1300 1374.6584
15.1400 985.6370
15.1500 1414.8256
15.1600 1301.7286
15.1700 1044.6002
15.1800 1214.7630
15.1900 1258.3560
15.2000 1205.7284
15.2100 1207.0888
15.2200 673.2046
15.2300 823.9662
15.2400 1107.3442
15.2500 1150.6266
15.2600 858.4124
15.2700 1012.1886
15.2800 1058.3958
15.2900 831.0878
15.3000 1148.4746
15.3100 1029.2914
15.3200 1394.8470
15.3300 1160.3322
15.3400 1262.1422
15.3500 1208.2300
15.3600 919.8306
15.3700 931.1662
15.3800 1336.8918
15.3900 908.8022
15.4000 1060.5196
15.4100 909.4352
15.4200 920.5942
15.4300 1058.5414
15.4400 856.6116
15.4500 1317.3922
15.4600 1138.2716
15.4700 1213.0430
15.4800 651.8496
15.4900 1125.1664
15.5000 974.8956
15.5100 426.7722
15.5200 1058.2808
15.5300 1030.1202
15.5400 1054.8468
15.5500 1240.7798
15.5600 1209.5676
15.5700 1037.9186
15.5800 955.0686
15.5900 1416.2260
15.6000 1112.2634
15.6100 844.0904
15.6200 868.6716
15.6300 823.9948
15.6400 999.7438
15.6500 1082.1048
15.6600 979.0878
15.6700 960.9926
15.6800 1066.3746
15.6900 1055.6698
15.7000 1041.2056
15.7100 1073.2900
15.7200 1235.6910
15.7300 950.4734
15.7400 950.0322
15.7500 617.1352
15.7600 730.0830
15.7700 1008.4650
15.7800 814.6278
15.7900 705.7142
15.8000 1037.3530
15.8100 859.6566
15.8200 1164.1978
15.8300 855.3460
15.8400 858.0170
15.8500 973.0312
15.8600 961.0664
15.8700 960.4482
15.8800 1185.9614
15.8900 901.0412
15.9000 849.6238
15.9100 737.9604
15.9200 1162.1670
15.9300 987.5654
15.9400 1066.2376
15.9500 1306.0574
15.9600 1177.4216
15.9700 875.8110
15.9800 1326.2158
15.9900 1132.7878
16.0000 864.0152
16.0100 1263.4146
16.0200 1294.9522
16.0300 1145.7810
16.0400 1115.4402
16.0500 854.3288
16.0600 979.4696
16.0700 1002.2026
16.0800 1238.8098
16.0900 1382.8454
16.1000 1155.7618
16.1100 1044.8984
16.1200 1093.7166
16.1300 858.0044
16.1400 1076.9688
16.1500 1241.8964
16.1600 664.6310
16.1700 794.1820
16.1800 1318.2140
16.1900 1331.2900
16.2000 941.4518
16.2100 1123.5664
16.2200 1154.3490
16.2300 960.6380
16.2400 1179.0694
16.2500 1263.1534
16.2600 956.3548
16.2700 797.8336
16.2800 815.0554
16.2900 1157.5012
16.3000 1037.6888
16.3100 1039.8878
16.3200 963.3118
16.3300 729.5202
16.3400 1109.9520
16.3500 856.5144
16.3600 1159.4838
16.3700 816.3120
16.3800 1098.7824
16.3900 952.9576
16.4000 1074.4702
16.4100 970.1968
16.4200 630.1378
16.4300 751.4324
16.4400 787.8012
16.4500 1068.2674
16.4600 806.0366
16.4700 930.2314
16.4800 1007.8598
16.4900 1346.6232
16.5000 744.0338
16.5100 882.3686
16.5200 1043.0884
16.5300 1107.3042
16.5400 1269.3388
16.5500 1216.0178
16.5600 1023.0834
16.5700 942.1894
16.5800 684.4856
16.5900 813.9626
16.6000 910.5916
16.6100 942.7950
16.6200 1062.5910
16.6300 738.1850
16.6400 1118.2748
16.6500 873.5010
16.6600 1214.6172
16.6700 1022.9836
16.6800 1335.4256
16.6900 1000.6364
16.7000 988.9046
16.7100 1045.8872
16.7200 997.7722
16.7300 928.8392
16.7400 666.5252
16.7500 801.6890
16.7600 723.4130
16.7700 726.3122
16.7800 1124.5202
16.7900 1025.0776
16.8000 649.1950
16.8100 847.6930
16.8200 1047.8700
16.8300 871.2526
16.8400 1229.2976
16.8500 932.5006
16.8600 991.5248
16.8700 1134.5348
16.8800 745.9320
16.8900 1004.5588
16.9000 806.0320
16.9100 1072.7266
16.9200 1113.0898
16.9300 883.2374
16.9400 935.5812
16.9500 784.0182
16.9600 919.7614
16.9700 869.3664
16.9800 1243.6198
16.9900 746.7044
17.0000 863.8678
17.0100 1047.8390
17.0200 839.8184
17.0300 870.2856
17.0400 903.2672
17.0500 844.1362
17.0600 1038.2198
17.0700 722.2772
17.0800 752.2696
17.0900 911.5102
17.1000 926.8206
17.1100 859.7582
17.1200 876.1132
17.1300 1067.1550
17.1400 794.6928
17.1500 920.3262
17.1600 796.4236
17.1700 902.3890
17.1800 762.0040
17.1900 1006.3424
17.2000 974.2280
17.2100 1166.0564
17.2200 882.1666
17.2300 808.3250
17.2400 821.9918
17.2500 966.0310
17.2600 961.5896
17.2700 821.4612
17.2800 1082.5618
17.2900 1134.9366
17.3000 839.6510
17.3100 813.5090
17.3200 1104.9904
17.3300 1282.0542
17.3400 828.1052
17.3500 1026.4198
17.3600 790.2882
17.3700 895.4786
17.3800 1111.5514
17.3900 1086.7344
17.4000 964.2790
17.4100 819.9868
17.4200 973.8328
17.4300 742.3350
17.4400 837.9176
17.4500 778.0212
17.4600 1097.7624
17.4700 1035.6478
17.4800 944.1272
17.4900 720.7754
17.5000 598.8200
17.5100 959.8176
17.5200 795.1838
17.5300 821.2990
17.5400 972.3528
17.5500 978.5318
17.5600 607.5452
17.5700 674.7372
17.5800 1034.6592
17.5900 1219.9704
17.6000 1045.2358
17.6100 921.8222
17.6200 773.7130
17.6300 579.6848
17.6400 1033.5718
17.6500 900.8280
17.6600 1182.8788
17.6700 889.5868
17.6800 1025.6742
17.6900 1005.7666
17.7000 1064.2076
17.7100 920.0312
17.7200 845.4264
17.7300 668.3902
17.7400 1030.0398
17.7500 1420.5632
17.7600 955.2062
17.7700 1002.1632
17.7800 1016.3860
17.7900 714.3604
17.8000 1115.9412
17.8100 1159.7002
17.8200 1210.8412
17.8300 696.3332
17.8400 975.3904
17.8500 725.8272
17.8600 716.5568
17.8700 797.9224
17.8800 750.1174
17.8900 1173.7726
17.9000 1291.9392
17.9100 853.1318
17.9200 868.6566
17.9300 1122.6260
17.9400 759.9642
17.9500 778.8420
17.9600 1170.0646
17.9700 933.2066
17.9800 1001.9342
17.9900 749.2894
18.0000 843.0652
18.0100 1031.0918
18.0200 855.7808
18.0300 795.2070
18.0400 1110.9038
18.0500 982.0186
18.0600 1014.1452
18.0700 923.3428
18.0800 1213.0600
18.0900 857.0014
18.1000 1033.5972
18.1100 1047.3152
18.1200 1131.5424
18.1300 1098.5234
18.1400 1056.5404
18.1500 1149.0736
18.1600 1117.8644
18.1700 778.7872
18.1800 868.3316
18.1900 1128.4924
18.2000 886.3602
18.2100 587.8054
18.2200 1026.6296
18.2300 827.2954
18.2400 905.1508
18.2500 1095.4910
18.2600 1159.5108
18.2700 1111.4794
18.2800 1268.2504
18.2900 1272.1112
18.3000 1053.9620
18.3100 847.0986
18.3200 1012.4158
18.3300 1064.7162
18.3400 1184.0382
18.3500 1007.3634
18.3600 838.6374
18.3700 932.0554
18.3800 978.4984
18.3900 1103.9900
18.4000 1045.2456
18.4100 882.1018
18.4200 930.2614
18.4300 941.6506
18.4400 910.4482
18.4500 1034.6920
18.4600 914.7260
18.4700 749.3034
18.4800 1003.1740
18.4900 926.9674
18.5000 1298.0138
18.5100 1513.5842
18.5200 1207.5552
18.5300 1080.5078
18.5400 1081.7984
18.5500 803.5528
18.5600 888.3884
18.5700 1247.5756
18.5800 837.7050
18.5900 1047.0780
18.6000 1297.1468
18.6100 1149.4162
18.6200 1039.5000
18.6300 886.3498
18.6400 599.9064
18.6500 984.0834
18.6600 946.3034
18.6700 1099.9808
18.6800 933.0290
18.6900 1055.3878
18.7000 1186.8612
18.7100 948.6046
18.7200 1167.2262
18.7300 810.3666
18.7400 1059.9820
18.7500 930.6600
18.7600 966.3658
18.7700 957.6512
18.7800 1081.6606
18.7900 1104.7094
18.8000 1152.9394
18.8100 1014.3376
18.8200 855.4082
18.8300 853.6006
18.8400 1079.9466
18.8500 1064.4470
18.8600 946.8172
18.8700 1180.3324
18.8800 823.9286
18.8900 1029.0364
18.9000 886.0276
18.9100 1074.8108
18.9200 903.5924
18.9300 946.3742
18.9400 720.2770
18.9500 910.3344
18.9600 1178.6904
18.9700 1178.1138
18.9800 1052.5172
18.9900 824.2208
19.0000 981.7132
19.0100 1059.3574
19.0200 738.7848
19.0300 1088.9874
19.0400 1293.3774
19.0500 1107.6140
19.0600 1010.2656
19.0700 1100.6778
19.0800 1160.2700
19.0900 1050.7584
19.1000 1111.7608
19.1100 1109.1552
19.1200 939.0810
19.1300 1052.9728
19.1400 1227.5108
19.1500 1003.2270
19.1600 1143.7892
19.1700 1111.9428
19.1800 1033.9440
19.1900 1152.6078
19.2000 999.5248
19.2100 1214.9454
19.2200 1012.9918
19.2300 1297.5476
19.2400 1298.4854
19.2500 1145.7712
19.2600 1216.4888
19.2700 1228.7696
19.2800 1160.7438
19.2900 1251.5308
19.3000 1398.7640
19.3100 904.0930
19.3200 1066.0582
19.3300 1305.8324
19.3400 1370.9716
19.3500 1032.8902
19.3600 1085.5904
19.3700 1177.6594
19.3800 1077.9092
19.3900 1112.9206
19.4000 1270.6998
19.4100 1255.9112
19.4200 1047.5300
19.4300 1233.4704
19.4400 892.6352
19.4500 1328.9166
19.4600 1108.7342
19.4700 1122.3332
19.4800 1150.9470
19.4900 1233.2010
19.5000 1069.4234
19.5100 1030.6956
19.5200 905.3554
19.5300 1020.1000
19.5400 1119.5078
19.5500 959.4966
19.5600 1088.4738
19.5700 946.0164
19.5800 1034.3572
19.5900 1011.2856
19.6000 1225.4440
19.6100 1171.0376
19.6200 1075.1964
19.6300 1142.9196
19.6400 1074.1008
19.6500 1228.6710
19.6600 1086.7916
19.6700 966.6368
19.6800 1131.6056
19.6900 1240.9796
19.7000 957.8874
19.7100 1305.3452
19.7200 1056.8764
19.7300 1190.4484
19.7400 1353.9328
19.7500 861.1242
19.7600 940.3510
19.7700 1244.2092
19.7800 1423.9274
19.7900 1563.0630
19.8000 1456.1364
19.8100 1505.1376
19.8200 967.3372
19.8300 1507.7918
19.8400 1519.3078
19.8500 1800.4324
19.8600 1354.9242
19.8700 1513.0330
19.8800 1632.5810
19.8900 1522.8650
19.9000 1586.0846
19.9100 1610.4398
19.9200 1712.5354
19.9300 2142.3548
19.9400 2046.8096
19.9500 2417.8652
19.9600 2073.3856
19.9700 2043.9874
19.9800 2179.8000
19.9900 2604.0886
20.0000 1953.3158
20.0100 3449.1254
20.0200 3251.3026
20.0300 3343.5242
20.0400 4377.2908
20.0500 4245.3588
20.0600 6018.9290
20.0700 5361.5488
20.0800 6304.4352
20.0900 7498.8642
20.1000 8496.3200
20.1100 10284.4076
20.1200 10714.7980
20.1300 11747.0774
20.1400 12393.6890
20.1500 12759.2966
20.1600 13091.8152
20.1700 12956.9386
20.1800 12136.1654
20.1900 10332.9438
20.2000 10132.2398
20.2100 9329.1330
20.2200 7740.0778
20.2300 6382.5582
20.2400 5411.1420
20.2500 5054.4180
20.2600 4290.7568
20.2700 3696.8298
20.2800 3430.9946
20.2900 3247.7168
20.3000 2662.8242
20.3100 2512.7492
20.3200 2430.8042
20.3300 2275.6268
20.3400 2229.4958
20.3500 2085.8574
20.3600 1877.8396
20.3700 1823.0258
20.3800 2062.5190
20.3900 1874.2536
20.4000 1916.7438
20.4100 1511.2368
20.4200 1688.8068
20.4300 1481.3486
20.4400 1523.2690
20.4500 1743.6904
20.4600 1328.7260
20.4700 1470.8918
20.4800 1556.1974
20.4900 1390.9240
20.5000 1782.6258
20.5100 1600.1304
20.5200 1149.2244
20.5300 1332.2430
20.5400 1137.4562
20.5500 1540.9544
20.5600 1240.3270
20.5700 1344.9852
20.5800 1097.4872
20.5900 1337.7812
20.6000 1133.8276
20.6100 1470.0888
20.6200 1173.5394
20.6300 1243.8388
20.6400 1274.6714
20.6500 1313.7592
20.6600 1412.8626
20.6700 1275.5920
20.6800 1386.6746
20.6900 1560.5508
20.7000 1329.2180
20.7100 1306.2112
20.7200 1237.9032
20.7300 1349.9338
20.7400 1087.7126
20.7500 1384.0270
20.7600 1297.9394
20.7700 1232.5088
20.7800 974.5600
20.7900 1146.4764
20.8000 1208.4528
20.8100 1311.3174
20.8200 1013.9128
20.8300 1208.1606
20.8400 1134.7780
20.8500 1137.9084
20.8600 1365.9332
20.8700 1149.5402
20.8800 1352.7024
20.8900 1310.4222
20.9000 1274.3078
20.9100 950.2844
20.9200 1230.6462
20.9300 1470.5782
20.9400 1251.3932
20.9500 1172.5942
20.9600 1171.7384
20.9700 1344.7762
20.9800 998.5410
20.9900 1158.3230
21.0000 1129.5914
21.0100 1463.6220
21.0200 1388.5940
21.0300 1050.9260
21.0400 959.0372
21.0500 1409.0846
21.0600 1196.3400
21.0700 1253.9102
21.0800 1316.0832
21.0900 1219.4920
21.1000 1255.4748
21.1100 1157.6400
21.1200 1263.0124
21.1300 1036.8940
21.1400 1570.6172
21.1500 1360.8962
21.1600 1449.2728
21.1700 1603.2674
21.1800 1322.9822
21.1900 1122.4552
21.2000 1376.5116
21.2100 1388.1080
21.2200 1505.2510
21.2300 1521.6126
21.2400 1353.7900
21.2500 1251.9818
21.2600 1450.8584
21.2700 1400.9670
21.2800 1233.0444
21.2900 1537.9670
21.3000 1431.3416
21.3100 1623.9518
21.3200 1487.3930
21.3300 1578.0660
21.3400 1412.5688
21.3500 1655.7862
21.3600 1547.4632
21.3700 1675.1728
21.3800 1882.8580
21.3900 1699.9680
21.4000 1835.0176
21.4100 1716.9256
21.4200 1744.4222
21.4300 1625.4674
21.4400 1283.6746
21.4500 1411.6474
21.4600 1714.0106
21.4700 1473.7902
21.4800 1307.1310
21.4900 1598.8638
21.5000 1628.8868
21.5100 1603.1236
21.5200 1545.8670
21.5300 1192.5032
21.5400 1153.1280
21.5500 1327.9330
21.5600 1477.7704
21.5700 1319.0566
21.5800 1008.1832
21.5900 1157.4584
21.6000 1292.8062
21.6100 1441.6030
21.6200 1064.2242
21.6300 1193.0782
21.6400 1354.0184
21.6500 1192.9386
21.6600 1156.0344
21.6700 1416.1200
21.6800 1256.3772
21.6900 1198.9186
21.7000 792.3524
21.7100 1298.7968
21.7200 1454.1962
21.7300 1162.2284
21.7400 1204.8266
21.7500 1241.8504
21.7600 1279.8118
21.7700 1041.6084
21.7800 1095.2434
21.7900 1545.7158
21.8000 1244.3350
21.8100 1346.2246
21.8200 1056.7548
21.8300 1312.6304
21.8400 1594.0348
21.8500 1218.4774
21.8600 1095.3756
21.8700 1392.6988
21.8800 1126.1924
21.8900 1247.1680
21.9000 1071.1672
21.9100 1225.4398
21.9200 1232.3266
21.9300 1328.7932
21.9400 1265.8332
21.9500 1325.5238
21.9600 1205.8484
21.9700 1153.7448
21.9800 1135.7570
21.9900 1245.1302
22.0000 1388.4900
22.0100 1236.6900
22.0200 1364.0990
22.0300 1347.3850
22.0400 1478.4454
22.0500 1280.1614
22.0600 1322.1936
22.0700 1189.8124
22.0800 1592.2570
22.0900 1443.2946
22.1000 1187.9718
22.1100 1515.3838
22.1200 1276.2706
22.1300 1179.6466
22.1400 1260.0538
22.1500 1084.5362
22.1600 1153.2972
22.1700 1313.1430
22.1800 1201.6048
22.1900 1318.1218
22.2000 1167.2304
22.2100 1170.3670
22.2200 1033.3686
22.2300 1117.3468
22.2400 1372.9944
22.2500 1244.7662
22.2600 1631.6062
22.2700 1709.6374
22.2800 1090.2058
22.2900 1256.9346
22.3000 1189.5030
22.3100 1019.3968
22.3200 1229.5998
22.3300 1179.0172
22.3400 1094.7066
22.3500 1531.4312
22.3600 1501.4398
22.3700 1509.8804
22.3800 1136.5716
22.3900 1375.9378
22.4000 1349.3982
22.4100 865.1436
22.4200 918.2078
22.4300 1110.5616
22.4400 1297.7172
22.4500 1248.3582
22.4600 1216.7312
22.4700 1375.8834
22.4800 1576.9368
22.4900 1078.0514
22.5000 1304.8118
22.5100 1344.0550
22.5200 1351.8452
22.5300 1374.9276
22.5400 1465.9894
22.5500 1495.5530
22.5600 1543.7020
22.5700 1550.2570
22.5800 1714.8500
22.5900 1500.9648
22.6000 1343.5576
22.6100 1536.1620
22.6200 1422.2516
22.6300 1388.2050
22.6400 1522.0484
22.6500 1087.5582
22.6600 1592.3030
22.6700 1250.1276
22.6800 1114.8952
22.6900 1143.4694
22.7000 1261.7966
22.7100 1520.8706
22.7200 1359.2824
22.7300 1387.0198
22.7400 1190.1294
22.7500 1175.8804
22.7600 1248.0752
22.7700 1455.7172
22.7800 1334.0188
22.7900 1436.1162
22.8000 1263.8264
22.8100 1362.6384
22.8200 1394.5442
22.8300 1371.9070
22.8400 1487.6378
22.8500 1276.6330
22.8600 1225.3990
22.8700 1364.9258
22.8800 1281.7048
22.8900 1486.5510
22.9000 1511.0742
22.9100 1343.3336
22.9200 1341.2042
22.9300 1255.7180
22.9400 1165.0384
22.9500 1314.1262
22.9600 1359.6314
22.9700 1256.1442
22.9800 1566.0590
22.9900 1172.0920
23.0000 1355.1532
23.0100 1704.0494
23.0200 1499.7416
23.0300 1322.4508
23.0400 1299.1142
23.0500 1231.3120
23.0600 1139.8758
23.0700 1609.0136
23.0800 1521.9398
23.0900 1091.9032
23.1000 1382.0068
23.1100 1223.0774
23.1200 1388.4238
23.1300 1076.3474
23.1400 1355.1378
23.1500 1089.3124
23.1600 1268.5746
23.1700 1293.6080
23.1800 989.9776
23.1900 1010.0922
23.2000 936.1414
23.2100 1684.3662
23.2200 979.4016
23.2300 1193.7980
23.2400 1375.9190
23.2500 1398.4608
23.2600 1470.1474
23.2700 1158.0970
23.2800 1404.5048
23.2900 1232.3624
23.3000 1479.8268
23.3100 1327.0094
23.3200 1288.0102
23.3300 1509.5298
23.3400 1491.1298
23.3500 1015.0072
23.3600 1181.5546
23.3700 1081.2642
23.3800 1262.8584
23.3900 1067.2602
23.4000 1308.2022
23.4100 1227.1134
23.4200 1222.9586
23.4300 1642.9112
23.4400 1161.7762
23.4500 1225.0178
23.4600 1377.8350
23.4700 1206.6582
23.4800 1225.5018
23.4900 1368.4510
23.5000 1412.8802
23.5100 1317.9296
23.5200 1316.2948
23.5300 958.3530
23.5400 1195.8268
23.5500 1541.9274
23.5600 1432.9160
23.5700 1490.9840
23.5800 1124.3388
23.5900 1075.1386
23.6000 1402.5876
23.6100 1369.9254
23.6200 1249.8430
23.6300 1022.3444
23.6400 1368.7522
23.6500 1472.5812
23.6600 1328.2558
23.6700 1449.0920
23.6800 1665.2640
23.6900 1614.8450
23.7000 1320.3546
23.7100 1369.5448
23.7200 1276.6812
23.7300 1337.7458
23.7400 1589.9360
23.7500 1274.2930
23.7600 1523.5034
23.7700 1282.2366
23.7800 1545.3866
23.7900 1209.3340
23.8000 1443.8342
23.8100 1245.5018
23.8200 1135.9542
23.8300 1476.7172
23.8400 1161.7580
23.8500 1253.8746
23.8600 1454.2724
23.8700 910.0192
23.8800 1392.5318
23.8900 1364.7698
23.9000 1394.9532
23.9100 1327.7068
23.9200 1237.3550
23.9300 1413.0088
23.9400 1214.2742
23.9500 1250.3312
23.9600 1226.3484
23.9700 1232.4592
23.9800 1446.5736
23.9900 1498.5192
24.0000 1289.4706
24.0100 1610.6300
24.0200 1449.7120
24.0300 1439.2524
24.0400 1373.0040
24.0500 1067.9100
24.0600 1324.8046
24.0700 1407.0934
24.0800 1749.4824
24.0900 1151.7366
24.1000 1342.8126
24.1100 1055.9560
24.1200 1159.6702
24.1300 1270.8930
24.1400 1291.1388
24.1500 1455.6064
24.1600 1236.2740
24.1700 1293.2910
24.1800 953.3866
24.1900 900.4758
24.2000 1356.5086
24.2100 1463.0584
24.2200 1416.2372
24.2300 1247.7552
24.2400 1420.0912
24.2500 1200.2310
24.2600 1379.7786
24.2700 1302.2838
24.2800 1488.1688
24.2900 1406.2522
24.3000 1308.8778
24.3100 1509.7974
24.3200 1678.4194
24.3300 1026.9292
24.3400 1201.1906
24.3500 927.5158
24.3600 1639.8494
24.3700 1586.5630
24.3800 1254.3290
24.3900 1386.8498
24.4000 1473.6282
24.4100 1737.5662
24.4200 1558.5490
24.4300 1595.1752
24.4400 1686.2090
24.4500 1641.7982
24.4600 1727.8292
24.4700 1458.9560
24.4800 1652.4734
24.4900 1454.9996
24.5000 1438.7100
24.5100 2085.6054
24.5200 1453.9408
24.5300 1403.4660
24.5400 1703.9106
24.5500 1831.1958
24.5600 1734.7278
24.5700 2063.0678
24.5800 2088.9978
24.5900 2135.2980
24.6000 1819.8342
24.6100 2301.7908
24.6200 2768.6276
24.6300 2676.9982
24.6400 2981.2828
24.6500 3559.1794
24.6600 4073.5588
24.6700 4534.8898
24.6800 4618.2694
24.6900 4722.4248
24.7000 5094.9636
24.7100 4813.7686
24.7200 5070.0658
24.7300 4540.0742
24.7400 4819.6940
24.7500 4385.1222
24.7600 4365.1672
24.7700 4239.8216
24.7800 3591.2376
24.7900 3424.7884
24.8000 2924.0206
24.8100 2569.9564
24.8200 2514.3400
24.8300 2599.2038
24.8400 2490.3172
24.8500 2091.5902
24.8600 2043.8312
24.8700 1834.4802
24.8800 1794.6846
24.8900 1956.8838
24.9000 1735.4488
24.9100 1444.5376
24.9200 1825.8076
24.9300 1844.2772
24.9400 1485.6152
24.9500 1611.6424
24.9600 1386.7900
24.9700 1468.1500
24.9800 1552.6534
24.9900 1479.3966
25.0000 1312.3410
25.0100 1105.3888
25.0200 1364.2456
25.0300 1217.9178
25.0400 1457.8510
25.0500 1279.4112
25.0600 1364.4554
25.0700 1508.7410
25.0800 1543.6530
25.0900 1583.5318
25.1000 1476.7640
25.1100 1612.3556
25.1200 1544.1132
25.1300 1201.9876
25.1400 1484.4946
25.1500 1486.4602
25.1600 1483.9288
25.1700 1682.7518
25.1800 1117.9884
25.1900 1497.4136
25.2000 873.5986
25.2100 1433.6556
25.2200 1147.0456
25.2300 1446.1422
25.2400 1107.2348
25.2500 1463.4638
25.2600 1389.6474
25.2700 1266.5184
25.2800 1566.4958
25.2900 1354.4456
25.3000 1079.1268
25.3100 1357.7540
25.3200 1249.8160
25.3300 1129.5520
25.3400 1273.5706
25.3500 1044.1624
25.3600 1225.4522
25.3700 1534.6392
25.3800 1403.4538
25.3900 1275.7102
25.4000 1337.7850
25.4100 1538.0360
25.4200 1199.6078
25.4300 1209.2628
25.4400 1427.8302
25.4500 1102.6618
25.4600 1196.9308
25.4700 1335.1936
25.4800 1257.9530
25.4900 1489.4558
25.5000 1235.1506
25.5100 1324.6948
25.5200 1225.1636
25.5300 1220.9266
25.5400 1574.7642
25.5500 1223.1464
25.5600 1172.3334
25.5700 1308.4892
25.5800 1544.5768
25.5900 1353.7792
25.6000 1653.3976
25.6100 1322.1424
25.6200 1764.1990
25.6300 1286.9158
25.6400 1418.0444
25.6500 1193.2530
25.6600 1108.0136
25.6700 1270.7652
25.6800 1376.1618
25.6900 1254.5168
25.7000 1555.2990
25.7100 1256.5018
25.7200 1333.6528
25.7300 1603.2922
25.7400 1359.4056
25.7500 1300.3318
25.7600 986.9386
25.7700 1123.0656
25.7800 982.3222
25.7900 1788.3968
25.8000 1082.7168
25.8100 1207.3332
25.8200 1442.7506
25.8300 1469.0554
25.8400 1316.0060
25.8500 1312.1940
25.8600 1412.7502
25.8700 1399.2448
25.8800 1313.1282
25.8900 1520.8914
25.9000 1211.3822
25.9100 1442.3988
25.9200 1348.5018
25.9300 1216.4648
25.9400 1273.0218
25.9500 1425.3104
25.9600 1646.8654
25.9700 1044.4534
25.9800 1519.8576
25.9900 1500.7568
26.0000 1683.4082
26.0100 1595.4662
26.0200 1233.2032
26.0300 1370.8028
26.0400 1674.0498
26.0500 1073.4048
26.0600 1490.3462
26.0700 1256.0292
26.0800 1353.5402
26.0900 1305.0884
26.1000 1308.0970
26.1100 1146.5148
26.1200 1252.3020
26.1300 1323.8314
26.1400 1842.5292
26.1500 1413.1974
26.1600 1268.9246
26.1700 1169.0518
26.1800 986.1158
26.1900 1195.5438
26.2000 1072.5542
26.2100 1261.3646
26.2200 1467.5688
26.2300 1181.5926
26.2400 1686.5276
26.2500 1063.3990
26.2600 1448.8920
26.2700 1336.7788
26.2800 1266.4952
26.2900 1222.2762
26.3000 1385.4902
26.3100 1352.6872
26.3200 1262.5510
26.3300 1255.8952
26.3400 1508.1068
26.3500 1584.3608
26.3600 1261.7076
26.3700 1485.6768
26.3800 1636.7018
26.3900 1415.3692
26.4000 1305.7950
26.4100 1552.9406
26.4200 1353.2610
26.4300 1584.8748
26.4400 1792.8390
26.4500 1257.6664
26.4600 1077.2954
26.4700 1229.9082
26.4800 1255.8380
26.4900 1139.0284
26.5000 1678.2342
26.5100 1568.2490
26.5200 1273.1084
26.5300 1315.2184
26.5400 1350.7978
26.5500 1430.8952
26.5600 1200.1362
26.5700 1097.4422
26.5800 1321.8962
26.5900 1280.6274
26.6000 1572.3276
26.6100 1587.9450
26.6200 1250.7682
26.6300 1218.4404
26.6400 1619.2502
26.6500 1403.0434
26.6600 1397.8998
26.6700 1838.8098
26.6800 1190.8126
26.6900 1203.5820
26.7000 1262.4744
26.7100 1553.4414
26.7200 1397.9126
26.7300 1394.5252
26.7400 1391.8356
26.7500 1557.2772
26.7600 1492.4770
26.7700 1325.0574
26.7800 1511.3356
26.7900 1714.7192
26.8000 1413.5162
26.8100 1850.1572
26.8200 1424.3104
26.8300 1109.2498
26.8400 1488.6694
26.8500 1525.3084
26.8600 1516.4928
26.8700 1325.8530
26.8800 1459.8168
26.8900 1635.0296
26.9000 1414.4268
26.9100 1545.5884
26.9200 1414.5964
26.9300 1204.6508
26.9400 1674.5184
26.9500 1306.3966
26.9600 1455.8734
26.9700 1682.3066
26.9800 1774.4362
26.9900 1487.4254
27.0000 1764.5296
27.0100 1304.9692
27.0200 1420.6368
27.0300 1205.4224
27.0400 1296.9662
27.0500 1396.5968
27.0600 1486.9772
27.0700 1263.4070
27.0800 1067.8850
27.0900 1639.3630
27.1000 1552.4964
27.1100 1686.9880
27.1200 1315.3124
27.1300 1482.2602
27.1400 1242.3620
27.1500 1466.5452
27.1600 1467.7244
27.1700 1474.5586
27.1800 1455.2320
27.1900 1502.7174
27.2000 1780.4724
27.2100 1476.5706
27.2200 1566.5086
27.2300 1215.9862
27.2400 1707.5480
27.2500 1041.3366
27.2600 1236.0820
27.2700 1470.0442
27.2800 1519.4574
27.2900 1144.3010
27.3000 1421.5806
27.3100 1474.0718
27.3200 1578.7060
27.3300 1256.0512
27.3400 1641.0732
27.3500 1303.9890
27.3600 1727.8102
27.3700 1696.8816
27.3800 1442.8814
27.3900 1468.2456
27.4000 1915.7768
27.4100 1782.4492
27.4200 1266.1136
27.4300 1738.5042
27.4400 1728.5386
27.4500 1545.2084
27.4600 1606.4854
27.4700 1379.8910
27.4800 1500.9660
27.4900 1530.7622
27.5000 1520.3696
27.5100 1298.1050
27.5200 1534.5946
27.5300 1597.2338
27.5400 1517.5356
27.5500 1752.9498
27.5600 1467.2754
27.5700 1435.3380
27.5800 1401.6204
27.5900 1515.4576
27.6000 1656.5266
27.6100 1615.7568
27.6200 1703.8126
27.6300 1576.0542
27.6400 1376.6472
27.6500 1501.0598
27.6600 1521.8824
27.6700 1340.7876
27.6800 1541.0316
27.6900 1219.7954
27.7000 1678.1606
27.7100 1471.4430
27.7200 1133.8398
27.7300 1513.4490
27.7400 1653.2022
27.7500 1405.8148
27.7600 1429.3182
27.7700 1750.7200
27.7800 1459.5858
27.7900 1640.2284
27.8000 1229.7034
27.8100 1257.8042
27.8200 1504.5118
27.8300 1611.6064
27.8400 1375.6086
27.8500 1561.5946
27.8600 1372.8412
27.8700 1516.4010
27.8800 1470.4044
27.8900 1514.3008
27.9000 1500.8946
27.9100 1255.7712
27.9200 1257.5508
27.9300 1248.3082
27.9400 1268.5580
27.9500 1305.1776
27.9600 1726.7628
27.9700 1238.0294
27.9800 1387.5002
27.9900 1711.9772
28.0000 1639.5076
28.0100 1652.1916
28.0200 1613.2512
28.0300 1561.9430
28.0400 1565.0974
28.0500 1444.7452
28.0600 1201.9464
28.0700 1583.9716
28.0800 1656.9730
28.0900 1151.2024
28.1000 1293.3986
28.1100 1635.6648
28.1200 1725.3802
28.1300 2061.2876
28.1400 2203.8092
28.1500 1668.9194
28.1600 1711.5586
28.1700 1869.7016
28.1800 1692.3414
28.1900 1645.6156
28.2000 1781.8018
28.2100 1998.4838
28.2200 1877.6898
28.2300 1796.1036
28.2400 1989.4212
28.2500 1953.0530
28.2600 2258.8422
28.2700 1868.3384
28.2800 1928.5030
28.2900 1901.4874
28.3000 2117.1190
28.3100 2221.1098
28.3200 2325.8038
28.3300 2628.5110
28.3400 2470.8930
28.3500 2688.5088
28.3600 2924.8292
28.3700 2669.0968
28.3800 3435.6550
28.3900 3035.7818
28.4000 3437.6584
28.4100 3365.1284
28.4200 4102.1636
28.4300 3388.9574
28.4400 4081.4786
28.4500 3992.7958
28.4600 4368.2974
28.4700 4859.0962
28.4800 5536.7864
28.4900 5637.6856
28.5000 7273.7010
28.5100 6934.4370
28.5200 7816.1016
28.5300 9290.7868
28.5400 11117.2466
28.5500 12264.6046
28.5600 13475.2462
28.5700 14536.2884
28.5800 15864.1144
28.5900 17769.2668
28.6000 17513.7106
28.6100 18475.7120
28.6200 18339.3738
28.6300 18019.4458
28.6400 16541.2322
28.6500 16168.4326
28.6600 15023.8688
28.6700 13204.5552
28.6800 12213.0808
28.6900 12109.0170
28.7000 10012.9872
28.7100 9016.8600
28.7200 8664.4266
28.7300 7176.4166
28.7400 6673.3852
28.7500 5579.0970
28.7600 4715.9470
28.7700 4960.2462
28.7800 4637.1068
28.7900 4364.3122
28.8000 3656.3278
28.8100 3363.5898
28.8200 3470.9628
28.8300 2823.8610
28.8400 2650.0480
28.8500 3018.9392
28.8600 2744.9112
28.8700 2549.7452
28.8800 2517.3940
28.8900 2493.6720
28.9000 2006.4422
28.9100 1912.7502
28.9200 2206.7654
28.9300 2095.5956
28.9400 2038.7566
28.9500 1872.2614
28.9600 2150.7574
28.9700 1936.1512
28.9800 2036.2688
28.9900 1969.0856
29.0000 1818.1302
29.0100 1584.1782
29.0200 1432.4042
29.0300 1842.4286
29.0400 1857.0610
29.0500 1831.0436
29.0600 1625.5402
29.0700 1680.6142
29.0800 1431.9100
29.0900 1362.5612
29.1000 1600.7478
29.1100 1568.9208
29.1200 1807.1764
29.1300 1408.1378
29.1400 1362.7948
29.1500 1622.8134
29.1600 1490.6190
29.1700 1720.9332
29.1800 1516.4716
29.1900 1308.6392
29.2000 1699.1616
29.2100 1191.2136
29.2200 1375.2146
29.2300 1555.3356
29.2400 1635.9158
29.2500 1537.6660
29.2600 1605.6606
29.2700 1549.4380
29.2800 1645.3314
29.2900 1336.8940
29.3000 1407.2196
29.3100 1345.1048
29.3200 1374.7314
29.3300 1073.9510
29.3400 1661.7446
29.3500 1391.5026
29.3600 1314.0336
29.3700 1679.5416
29.3800 1605.7572
29.3900 1272.4864
29.4000 1617.2112
29.4100 1495.8682
29.4200 1301.6808
29.4300 1287.1730
29.4400 1212.4396
29.4500 1445.5544
29.4600 1378.6142
29.4700 1300.5982
29.4800 1282.4132
29.4900 1403.9822
29.5000 1244.8062
29.5100 1399.4642
29.5200 1592.1230
29.5300 1483.0370
29.5400 1447.0774
29.5500 1406.2910
29.5600 1546.4192
29.5700 1192.9010
29.5800 1466.0680
29.5900 1328.8962
29.6000 1434.9652
29.6100 1168.4324
29.6200 1515.3902
29.6300 1167.7056
29.6400 1280.0822
29.6500 1495.3114
29.6600 1396.2564
29.6700 1318.9182
29.6800 1492.6818
29.6900 1499.9304
29.7000 1056.6944
29.7100 1482.9444
29.7200 1075.2010
29.7300 1288.4270
29.7400 1356.2998
29.7500 1086.2580
29.7600 1545.4416
29.7700 1420.0140
29.7800 1461.2806
29.7900 1511.2892
29.8000 1296.8942
29.8100 1247.8254
29.8200 1107.2426
29.8300 1264.7528
29.8400 1423.7622
29.8500 990.0352
29.8600 1214.1296
29.8700 1137.3634
29.8800 1577.0148
29.8900 1430.6798
29.9000 1125.4920
29.9100 928.7022
29.9200 1454.6134
29.9300 973.8694
29.9400 1291.0324
29.9500 1552.1728
29.9600 1456.5142
29.9700 1134.0674
29.9800 1410.2020
29.9900 1418.1242
30.0000 1102.2734
30.0100 1432.3428
30.0200 1106.6456
30.0300 1422.7432
30.0400 1647.4750
30.0500 1304.8022
30.0600 1538.8406
30.0700 1854.1918
30.0800 1876.2100
30.0900 2043.9516
30.1000 1669.2736
30.1100 2112.2042
30.1200 1943.6698
30.1300 1843.3084
30.1400 2019.6944
30.1500 1778.8616
30.1600 2236.6768
30.1700 1662.0898
30.1800 1915.6972
30.1900 2114.4546
30.2000 2395.2046
30.2100 2313.3032
30.2200 2441.7528
30.2300 2473.7218
30.2400 2395.0834
30.2500 2274.2290
30.2600 2487.6098
30.2700 2696.7862
30.2800 2369.0144
30.2900 2724.8228
30.3000 2876.4798
30.3100 2369.0668
30.3200 2190.3644
30.3300 2579.9588
30.3400 2485.0312
30.3500 2109.0142
30.3600 3010.3974
30.3700 2234.0600
30.3800 2655.6654
30.3900 2486.8728
30.4000 2473.3468
30.4100 2581.5928
30.4200 2432.5056
30.4300 2486.3540
30.4400 2145.2408
30.4500 2087.7354
30.4600 2068.9686
30.4700 2075.9180
30.4800 1859.4974
30.4900 1926.2698
30.5000 1914.3886
30.5100 1608.2524
30.5200 1918.1708
30.5300 1920.8276
30.5400 2090.6688
30.5500 2244.4326
30.5600 1953.4684
30.5700 1872.0354
30.5800 1734.6132
30.5900 1648.8216
30.6000 2114.3462
30.6100 1959.4014
30.6200 1844.8904
30.6300 1416.3562
30.6400 1458.6298
30.6500 1492.8074
30.6600 1252.1100
30.6700 1694.0602
30.6800 1747.8254
30.6900 1598.3756
30.7000 1531.1248
30.7100 1497.5838
30.7200 1626.1100
30.7300 1634.9764
30.7400 1604.6752
30.7500 1390.3842
30.7600 1289.1488
30.7700 1534.0668
30.7800 1626.2926
30.7900 1364.5576
30.8000 1060.6598
30.8100 1175.4430
30.8200 1671.9198
30.8300 1293.7974
30.8400 1160.4908
30.8500 1367.8746
30.8600 1290.2276
30.8700 1290.5310
30.8800 1587.9772
30.8900 1423.3656
30.9000 1277.0058
30.9100 1244.8310
30.9200 1364.9360
30.9300 1334.8554
30.9400 1263.3646
30.9500 1388.5080
30.9600 1306.0840
30.9700 1591.2818
30.9800 1209.3316
30.9900 1280.7904
31.0000 1213.8128
31.0100 1252.5906
31.0200 1537.5172
31.0300 1205.9070
31.0400 1286.4208
31.0500 1289.4026
31.0600 1262.9142
31.0700 1324.9964
31.0800 1409.7768
31.0900 1232.5958
31.1000 1359.3268
31.1100 1450.7000
31.1200 1171.9646
31.1300 1312.5512
31.1400 1097.0054
31.1500 1329.1904
31.1600 1414.2426
31.1700 1560.5842
31.1800 1274.0380
31.1900 1447.2092
31.2000 1168.5916
31.2100 1345.1836
31.2200 1172.7236
31.2300 1018.5586
31.2400 1101.5906
31.2500 1386.8934
31.2600 1152.5010
31.2700 1599.0200
31.2800 1483.4410
31.2900 1538.0598
31.3000 1410.3074
31.3100 1447.3794
31.3200 1470.1686
31.3300 1086.6566
31.3400 1390.0328
31.3500 1295.0190
31.3600 1232.5622
31.3700 1210.1532
31.3800 1314.9644
31.3900 1171.3414
31.4000 1167.2482
31.4100 1394.0098
31.4200 1438.9456
31.4300 1273.1854
31.4400 1330.7738
31.4500 1178.5104
31.4600 1254.0064
31.4700 1464.4870
31.4800 1328.2750
31.4900 1428.3658
31.5000 1208.9524
31.5100 971.6332
31.5200 1130.1334
31.5300 1314.3916
31.5400 1199.5010
31.5500 1199.1614
31.5600 1311.7858
31.5700 1604.8200
31.5800 1561.2926
31.5900 1625.4064
31.6000 1255.8980
31.6100 1431.2914
31.6200 1812.9110
31.6300 1471.0350
31.6400 1486.8618
31.6500 1301.0022
31.6600 1627.2720
31.6700 1633.5626
31.6800 1504.9510
31.6900 1356.9120
31.7000 1308.2952
31.7100 1668.8450
31.7200 1350.8036
31.7300 1572.9376
31.7400 2034.1150
31.7500 1619.8846
31.7600 1750.2582
31.7700 1945.8752
31.7800 1755.3896
31.7900 1748.5300
31.8000 2049.4378
31.8100 2184.9384
31.8200 2287.5864
31.8300 2190.0282
31.8400 2645.7010
31.8500 2996.7274
31.8600 2577.8788
31.8700 2474.8850
31.8800 2915.0706
31.8900 3039.1724
31.9000 2944.2464
31.9100 3429.7142
31.9200 3440.2328
31.9300 3825.4180
31.9400 4534.5800
31.9500 4198.0840
31.9600 5004.9576
31.9700 5360.2346
31.9800 6467.2954
31.9900 7334.1594
32.0000 8360.7336
32.0100 8809.6598
32.0200 10264.6026
32.0300 10482.4778
32.0400 11083.9630
32.0500 12409.0108
32.0600 10905.1086
32.0700 11456.1788
32.0800 10786.0352
32.0900 10119.3940
32.1000 9132.3568
32.1100 9611.6536
32.1200 8525.9278
32.1300 8559.6802
32.1400 7517.9688
32.1500 7038.8494
32.1600 6356.1946
32.1700 4958.9910
32.1800 4260.8022
32.1900 3983.4086
32.2000 4131.2026
32.2100 3150.1500
32.2200 3246.9838
32.2300 2837.4254
32.2400 2186.5534
32.2500 2469.1268
32.2600 1868.2562
32.2700 2336.2040
32.2800 2019.5560
32.2900 1781.6192
32.3000 1699.7160
32.3100 1797.5944
32.3200 1819.5392
32.3300 1765.3084
32.3400 1706.7936
32.3500 1778.4460
32.3600 1417.3008
32.3700 1602.0424
32.3800 1750.9442
32.3900 1622.4246
32.4000 1217.1428
32.4100 1662.3180
32.4200 1185.6640
32.4300 1545.3894
32.4400 1295.9608
32.4500 1346.6230
32.4600 1462.7480
32.4700 1450.2900
32.4800 1117.7584
32.4900 1133.8672
32.5000 1738.4712
32.5100 1646.4568
32.5200 1430.9572
32.5300 1005.4086
32.5400 1094.0696
32.5500 1258.5862
32.5600 1276.2714
32.5700 1062.0442
32.5800 1214.3718
32.5900 1121.2224
32.6000 1161.8696
32.6100 1234.8000
32.6200 1185.2466
32.6300 1110.3426
32.6400 1513.0782
32.6500 1347.8646
32.6600 1279.2006
32.6700 1061.6074
32.6800 1340.7534
32.6900 1353.9506
32.7000 712.4676
32.7100 1066.6346
32.7200 1191.4580
32.7300 1030.7280
32.7400 1321.7690
32.7500 975.7602
32.7600 1252.3720
32.7700 1312.4086
32.7800 1237.6282
32.7900 1100.1992
32.8000 1081.0044
32.8100 899.6770
32.8200 1229.3912
32.8300 735.7020
32.8400 1004.0168
32.8500 1240.3940
32.8600 1137.1214
32.8700 998.0758
32.8800 1124.1144
32.8900 1029.1916
32.9000 1259.2786
32.9100 1363.6588
32.9200 1430.7626
32.9300 1154.4484
32.9400 1120.1830
32.9500 1268.6014
32.9600 1118.8676
32.9700 1196.5542
32.9800 1330.3542
32.9900 1235.4936
33.0000 969.4764
33.0100 1047.2894
33.0200 954.0010
33.0300 1114.9464
33.0400 898.8684
33.0500 1086.1002
33.0600 1039.4288
33.0700 1137.1820
33.0800 866.4620
33.0900 1233.1190
33.1000 974.9352
33.1100 900.9642
33.1200 1156.7822
33.1300 947.0842
33.1400 1326.6614
33.1500 1007.4320
33.1600 1040.0764
33.1700 1070.8316
33.1800 1258.9426
33.1900 1146.2290
33.2000 888.6646
33.2100 1016.0886
33.2200 1231.2926
33.2300 891.1984
33.2400 941.6216
33.2500 1040.8280
33.2600 1294.8332
33.2700 1003.8690
33.2800 804.5946
33.2900 857.4274
33.3000 1200.3476
33.3100 1027.8208
33.3200 932.0602
33.3300 982.8254
33.3400 1056.4022
33.3500 1249.9512
33.3600 1198.8202
33.3700 1072.7018
33.3800 1051.0394
33.3900 1254.9120
33.4000 1215.3204
33.4100 1065.6494
33.4200 906.2668
33.4300 924.5088
33.4400 1202.9842
33.4500 1105.7502
33.4600 923.9022
33.4700 994.3456
33.4800 1011.0182
33.4900 1058.4456
33.5000 855.3872
33.5100 1119.3890
33.5200 892.6850
33.5300 995.4208
33.5400 899.1822
33.5500 1136.6924
33.5600 1087.3196
33.5700 1214.3854
33.5800 1216.9268
33.5900 1049.3112
33.6000 913.5660
33.6100 837.9418
33.6200 983.0410
33.6300 760.2346
33.6400 1101.8762
33.6500 985.7360
33.6600 799.9034
33.6700 900.0046
33.6800 1176.3202
33.6900 911.6864
33.7000 1013.3226
33.7100 1149.9042
33.7200 1170.4278
33.7300 1047.2052
33.7400 1095.3184
33.7500 883.3504
33.7600 885.8968
33.7700 1156.5984
33.7800 968.9646
33.7900 1192.3680
33.8000 804.2230
33.8100 1025.8476
33.8200 1147.5182
33.8300 1016.2206
33.8400 981.9390
33.8500 1087.4168
33.8600 1065.7218
33.8700 1110.6146
33.8800 1049.2676
33.8900 911.2228
33.9000 689.9762
33.9100 890.4880
33.9200 775.0216
33.9300 843.3944
33.9400 1068.4200
33.9500 1015.6060
33.9600 1115.9764
33.9700 1011.9458
33.9800 1040.6888
33.9900 1166.0406
34.0000 871.3770
34.0100 1060.3000
34.0200 1088.2606
34.0300 684.4808
34.0400 970.4226
34.0500 1190.7480
34.0600 1087.5202
34.0700 1228.7270
34.0800 1058.1830
34.0900 1111.8616
34.1000 903.8724
34.1100 1011.3724
34.1200 1112.8548
34.1300 1094.6866
34.1400 1126.8904
34.1500 839.4488
34.1600 884.2918
34.1700 839.9240
34.1800 1070.4120
34.1900 1118.4858
34.2000 774.7330
34.2100 879.5680
34.2200 1006.9766
34.2300 1081.1406
34.2400 1091.7126
34.2500 1123.0542
34.2600 1135.8070
34.2700 944.6796
34.2800 902.3990
34.2900 980.0650
34.3000 961.2768
34.3100 843.5810
34.3200 1134.0150
34.3300 820.4978
34.3400 988.1824
34.3500 1033.7044
34.3600 886.8936
34.3700 844.5082
34.3800 836.3082
34.3900 1065.2628
34.4000 932.8206
34.4100 1010.1952
34.4200 873.0408
34.4300 1186.8382
34.4400 825.3748
34.4500 853.0378
34.4600 861.1080
34.4700 772.0486
34.4800 1107.6752
34.4900 1097.9284
34.5000 1260.0002
34.5100 934.8282
34.5200 939.4102
34.5300 970.9524
34.5400 890.9712
34.5500 728.5966
34.5600 829.3766
34.5700 942.4322
34.5800 1039.8452
34.5900 858.3250
34.6000 1035.5060
34.6100 1286.7232
34.6200 953.0404
34.6300 867.7150
34.6400 906.6340
34.6500 828.7226
34.6600 856.4268
34.6700 994.4246
34.6800 958.5190
34.6900 923.3956
34.7000 826.3922
34.7100 996.6574
34.7200 1010.8622
34.7300 1053.1570
34.7400 711.4250
34.7500 856.0412
34.7600 1020.0910
34.7700 995.1264
34.7800 934.2918
34.7900 1289.3976
34.8000 1075.1984
34.8100 1150.0348
34.8200 918.6716
34.8300 1054.2350
34.8400 1133.6686
34.8500 841.2328
34.8600 1234.9872
34.8700 1478.0622
34.8800 1083.1958
34.8900 941.3004
34.9000 1166.4354
34.9100 1159.4122
34.9200 923.5118
34.9300 726.6536
34.9400 1085.8070
34.9500 1132.5874
34.9600 1155.8316
34.9700 1090.0108
34.9800 1316.6456
34.9900 1276.6616
35.0000 1294.9598
35.0100 993.3016
35.0200 1290.7794
35.0300 1478.9662
35.0400 1285.9702
35.0500 1215.7332
35.0600 1375.3520
35.0700 1528.9448
35.0800 1251.8422
35.0900 1985.4772
35.1000 1893.5564
35.1100 1732.9830
35.1200 2185.2134
35.1300 2307.5806
35.1400 2178.9428
35.1500 2400.0718
35.1600 2647.5152
35.1700 3010.6504
35.1800 2978.0334
35.1900 3241.0062
35.2000 3732.3102
35.2100 3792.6840
35.2200 3907.1526
35.2300 3779.5272
35.2400 3499.9280
35.2500 3681.7138
35.2600 3983.1868
35.2700 3752.0416
35.2800 3724.3322
35.2900 3531.8702
35.3000 3525.4804
35.3100 3132.7578
35.3200 3084.5172
35.3300 2964.5884
35.3400 2820.6938
35.3500 2396.4042
35.3600 2662.3546
35.3700 2204.5934
35.3800 2015.8902
35.3900 2054.7966
35.4000 1894.4542
35.4100 1756.6792
35.4200 1991.8584
35.4300 1600.1438
35.4400 1572.8504
35.4500 1293.0926
35.4600 1395.4858
35.4700 1284.6438
35.4800 1246.6996
35.4900 1089.7488
35.5000 1316.1430
35.5100 1278.4732
35.5200 1036.7954
35.5300 1402.7908
35.5400 1276.1484
35.5500 1157.3130
35.5600 1327.8032
35.5700 1270.3616
35.5800 1095.2258
35.5900 935.8744
35.6000 939.6252
35.6100 853.4502
35.6200 888.0520
35.6300 1019.3130
35.6400 864.8808
35.6500 988.7182
35.6600 966.2712
35.6700 790.4218
35.6800 838.2404
35.6900 896.3460
35.7000 832.6302
35.7100 962.0788
35.7200 952.4676
35.7300 966.7978
35.7400 824.4122
35.7500 892.8888
35.7600 1115.9192
35.7700 643.3866
35.7800 1044.0462
35.7900 900.4682
35.8000 738.3128
35.8100 766.7830
35.8200 851.6484
35.8300 956.2606
35.8400 1017.0664
35.8500 985.2422
35.8600 1012.9304
35.8700 986.3312
35.8800 915.6578
35.8900 813.2740
35.9000 978.9532
35.9100 942.8170
35.9200 907.0748
35.9300 887.9816
35.9400 1080.0914
35.9500 772.6774
35.9600 995.8746
35.9700 1086.7296
35.9800 939.2852
35.9900 945.0400
36.0000 671.3318
36.0100 818.5860
36.0200 1143.3756
36.0300 816.0572
36.0400 826.8446
36.0500 927.2382
36.0600 845.5228
36.0700 943.7316
36.0800 852.7246
36.0900 749.5466
36.1000 723.9612
36.1100 899.9922
36.1200 1024.3388
36.1300 969.7392
36.1400 755.5106
36.1500 715.1234
36.1600 880.8024
36.1700 915.7262
36.1800 870.5402
36.1900 811.8334
36.2000 949.1704
36.2100 1030.9266
36.2200 900.1904
36.2300 884.9728
36.2400 831.3002
36.2500 960.6186
36.2600 739.5116
36.2700 993.5028
36.2800 762.5196
36.2900 1159.9594
36.3000 666.1266
36.3100 874.5178
36.3200 932.2996
36.3300 972.4474
36.3400 835.5668
36.3500 862.2210
36.3600 924.9828
36.3700 675.1646
36.3800 645.0504
36.3900 717.1848
36.4000 945.2182
36.4100 921.3070
36.4200 1037.9096
36.4300 1103.5072
36.4400 1027.2044
36.4500 793.6930
36.4600 687.1892
36.4700 856.6414
36.4800 647.9800
36.4900 695.9782
36.5000 959.8658
36.5100 662.9482
36.5200 809.9114
36.5300 773.1960
36.5400 871.4868
36.5500 1002.8626
36.5600 954.4462
36.5700 851.0820
36.5800 984.4656
36.5900 981.2192
36.6000 931.1558
36.6100 1049.2088
36.6200 727.3412
36.6300 781.2396
36.6400 1061.7452
36.6500 1017.1704
36.6600 1257.2264
36.6700 956.8302
36.6800 1043.8836
36.6900 857.7830
36.7000 809.8426
36.7100 736.4652
36.7200 1033.7112
36.7300 728.1572
36.7400 671.7404
36.7500 844.5728
36.7600 765.5100
36.7700 732.0472
36.7800 1152.6372
36.7900 921.9894
36.8000 1121.8706
36.8100 1006.7358
36.8200 1094.2296
36.8300 627.3558
36.8400 1142.1956
36.8500 889.2900
36.8600 775.9900
36.8700 874.8736
36.8800 884.7520
36.8900 862.1030
36.9000 999.5572
36.9100 833.0500
36.9200 798.0394
36.9300 947.8758
36.9400 849.7290
36.9500 666.2090
36.9600 767.3496
36.9700 645.8110
36.9800 873.7674
36.9900 971.3744
37.0000 746.2658
37.0100 772.5638
37.0200 660.3502
37.0300 907.8570
37.0400 1125.2998
37.0500 797.8362
37.0600 894.4300
37.0700 896.8406
37.0800 699.6618
37.0900 633.9730
37.1000 644.1154
37.1100 686.5496
37.1200 756.1324
37.1300 889.2160
37.1400 708.3332
37.1500 782.3210
37.1600 709.0948
37.1700 784.9548
37.1800 692.4694
37.1900 953.9136
37.2000 792.8892
37.2100 719.3578
37.2200 902.7746
37.2300 986.3396
37.2400 639.5828
37.2500 748.7542
37.2600 874.2956
37.2700 1023.8580
37.2800 942.4406
37.2900 603.3928
37.3000 757.6756
37.3100 611.2262
37.3200 901.9110
37.3300 758.3496
37.3400 826.2918
37.3500 779.7352
37.3600 712.3182
37.3700 979.9498
37.3800 991.4872
37.3900 1061.2530
37.4000 682.9092
37.4100 1006.4696
37.4200 1150.2286
37.4300 959.2854
37.4400 958.3036
37.4500 944.8610
37.4600 989.1842
37.4700 1154.9440
37.4800 1255.0900
37.4900 919.0656
37.5000 867.3408
37.5100 1276.3070
37.5200 779.4842
37.5300 1008.5494
37.5400 992.8734
37.5500 875.2080
37.5600 1241.8658
37.5700 1008.3960
37.5800 922.1448
37.5900 1156.2142
37.6000 1150.3356
37.6100 961.5600
37.6200 1217.0936
37.6300 686.8620
37.6400 816.2448
37.6500 884.9034
37.6600 973.0874
37.6700 749.4404
37.6800 948.8818
37.6900 854.4992
37.7000 876.8898
37.7100 922.0756
37.7200 645.1454
37.7300 644.9894
37.7400 807.7890
37.7500 835.9850
37.7600 939.4350
37.7700 895.1910
37.7800 845.0614
37.7900 888.2164
37.8000 673.2574
37.8100 842.2726
37.8200 810.6590
37.8300 712.2566
37.8400 992.9132
37.8500 892.7408
37.8600 916.3364
37.8700 737.3346
37.8800 758.7892
37.8900 581.2304
37.9000 722.6162
37.9100 721.8188
37.9200 739.2832
37.9300 596.0316
37.9400 913.4218
37.9500 765.3348
37.9600 736.1308
37.9700 707.4798
37.9800 619.0948
37.9900 683.5592
38.0000 880.5582
38.0100 796.3240
38.0200 639.1792
38.0300 699.6096
38.0400 716.9778
38.0500 717.3214
38.0600 868.5842
38.0700 919.4814
38.0800 792.0202
38.0900 817.0932
38.1000 745.9138
38.1100 766.8968
38.1200 752.2660
38.1300 667.0210
38.1400 760.6666
38.1500 860.0360
38.1600 820.7876
38.1700 705.8004
38.1800 845.4800
38.1900 744.6678
38.2000 842.7794
38.2100 939.7294
38.2200 791.0440
38.2300 612.7432
38.2400 624.6356
38.2500 541.0960
38.2600 808.4732
38.2700 661.2840
38.2800 540.9116
38.2900 745.3564
38.3000 442.9616
38.3100 894.1780
38.3200 921.3828
38.3300 1028.5862
38.3400 852.3444
38.3500 631.0568
38.3600 740.4192
38.3700 958.4710
38.3800 924.4532
38.3900 638.4820
38.4000 738.9412
38.4100 775.7678
38.4200 788.0898
38.4300 720.0596
38.4400 607.4566
38.4500 815.6438
38.4600 784.1188
38.4700 1054.6408
38.4800 612.9932
38.4900 556.6658
38.5000 686.1570
38.5100 811.9346
38.5200 794.5576
38.5300 803.0592
38.5400 765.7476
38.5500 741.3492
38.5600 891.1220
38.5700 749.6170
38.5800 700.3986
38.5900 694.5786
38.6000 837.5620
38.6100 563.9942
38.6200 1010.5672
38.6300 613.2112
38.6400 722.7630
38.6500 788.1056
38.6600 669.3242
38.6700 668.2790
38.6800 912.6922
38.6900 804.3384
38.7000 737.2224
38.7100 543.5114
38.7200 684.6508
38.7300 717.0976
38.7400 729.2204
38.7500 541.5992
38.7600 752.3780
38.7700 740.7352
38.7800 876.4236
38.7900 584.0398
38.8000 654.1756
38.8100 709.5488
38.8200 636.0384
38.8300 969.9396
38.8400 809.7376
38.8500 850.4820
38.8600 524.3952
38.8700 863.2214
38.8800 931.8428
38.8900 907.6520
38.9000 855.2776
38.9100 750.0158
38.9200 646.6598
38.9300 892.7832
38.9400 806.5730
38.9500 878.7654
38.9600 938.1738
38.9700 688.5946
38.9800 993.6698
38.9900 598.7888
39.0000 823.9660
39.0100 809.4210
39.0200 832.3566
39.0300 978.9314
39.0400 835.3182
39.0500 628.1142
39.0600 662.6242
39.0700 994.7280
39.0800 906.4108
39.0900 846.6904
39.1000 1179.0546
39.1100 1022.1964
39.1200 1017.2560
39.1300 995.5444
39.1400 744.2156
39.1500 729.5338
39.1600 676.5604
39.1700 915.7424
39.1800 735.7138
39.1900 819.2964
39.2000 650.7930
39.2100 819.4552
39.2200 1129.3474
39.2300 855.1526
39.2400 963.8630
39.2500 946.4074
39.2600 770.7716
39.2700 592.4066
39.2800 549.6734
39.2900 779.4778
39.3000 931.8070
39.3100 811.8806
39.3200 845.4300
39.3300 660.1300
39.3400 791.6276
39.3500 755.7862
39.3600 852.4678
39.3700 883.4014
39.3800 755.4290
39.3900 584.3090
39.4000 876.5748
39.4100 811.2358
39.4200 939.1062
39.4300 726.4436
39.4400 781.5744
39.4500 773.8634
39.4600 739.3190
39.4700 739.0958
39.4800 819.6186
39.4900 742.9416
39.5000 648.7600
39.5100 778.8658
39.5200 1046.7264
39.5300 996.6160
39.5400 1011.6120
39.5500 824.1802
39.5600 767.6704
39.5700 857.5592
39.5800 906.7794
39.5900 918.5870
39.6000 605.9928
39.6100 913.3066
39.6200 954.2592
39.6300 916.8430
39.6400 650.9556
39.6500 822.7868
39.6600 795.1338
39.6700 898.8870
39.6800 918.3414
39.6900 696.1392
39.7000 858.7064
39.7100 965.4546
39.7200 800.3230
39.7300 1034.3758
39.7400 902.2252
39.7500 701.3482
39.7600 823.2090
39.7700 659.5332
39.7800 989.8670
39.7900 854.7896
39.8000 778.2786
39.8100 1084.9138
39.8200 938.7498
39.8300 1001.3638
39.8400 652.8168
39.8500 935.5038
39.8600 783.3176
39.8700 730.9076
39.8800 935.7996
39.8900 790.4934
39.9000 1047.8774
39.9100 1109.3794
39.9200 938.0038
39.9300 853.6682
39.9400 1016.8660
39.9500 1020.6428
39.9600 919.0808
39.9700 843.1866
39.9800 746.4176
39.9900 877.5478
40.0000 752.8996
40.0100 945.3298
40.0200 857.0860
40.0300 1115.6780
40.0400 818.8150
40.0500 717.0446
40.0600 820.0330
40.0700 614.8620
40.0800 962.2496
40.0900 1145.9434
40.1000 879.8490
40.1100 939.5336
40.1200 794.8272
40.1300 896.2690
40.1400 877.8254
40.1500 1025.3664
40.1600 709.9554
40.1700 970.7314
40.1800 1018.9558
40.1900 972.4354
40.2000 757.0236
40.2100 869.2214
40.2200 992.1902
40.2300 887.5872
40.2400 852.5370
40.2500 817.5382
40.2600 734.2538
40.2700 858.8474
40.2800 1097.4868
40.2900 791.5376
40.3000 829.5620
40.3100 895.2334
40.3200 1166.3256
40.3300 733.3000
40.3400 965.2118
40.3500 1170.0896
40.3600 859.0996
40.3700 895.8870
40.3800 1047.0704
40.3900 1258.5412
40.4000 832.0020
40.4100 949.1566
40.4200 1092.6112
40.4300 1053.3158
40.4400 919.5246
40.4500 914.9762
40.4600 889.8630
40.4700 1034.0796
40.4800 1195.0604
40.4900 1277.3804
40.5000 1088.7816
40.5100 1327.2904
40.5200 1018.5080
40.5300 1280.8472
40.5400 1450.6502
40.5500 1254.9310
40.5600 1368.5334
40.5700 995.1582
40.5800 1131.8252
40.5900 1446.6408
40.6000 1758.3432
40.6100 1488.8762
40.6200 1612.4166
40.6300 1682.3726
40.6400 1552.2196
40.6500 1981.1150
40.6600 2241.1064
40.6700 2391.0418
40.6800 1811.2106
40.6900 2320.2702
40.7000 2460.8650
40.7100 2384.1294
40.7200 2450.8112
40.7300 2801.5914
40.7400 2955.3388
40.7500 3267.9520
40.7600 3254.5626
40.7700 3710.2618
40.7800 4331.8980
40.7900 4960.2748
40.8000 5681.4264
40.8100 6166.0196
40.8200 6666.1118
40.8300 7693.5054
40.8400 8282.1212
40.8500 9055.0760
40.8600 9806.9886
40.8700 9951.2370
40.8800 10084.5194
40.8900 10700.0296
40.9000 10303.0640
40.9100 9895.7468
40.9200 9096.7204
40.9300 9277.2430
40.9400 8631.9620
40.9500 9399.7386
40.9600 7781.6670
40.9700 7865.3060
40.9800 6895.2576
40.9900 6869.7348
41.0000 6594.1350
41.0100 5541.6544
41.0200 5732.1050
41.0300 4874.7864
41.0400 4317.6336
41.0500 3834.3946
41.0600 3614.0502
41.0700 3274.3892
41.0800 3038.5834
41.0900 2781.1472
41.1000 2397.4256
41.1100 2434.4932
41.1200 2268.8898
41.1300 2047.7330
41.1400 1783.1646
41.1500 1783.7022
41.1600 1753.9038
41.1700 1744.1798
41.1800 1668.8460
41.1900 1703.6590
41.2000 1698.6194
41.2100 1383.8326
41.2200 1344.3432
41.2300 991.4806
41.2400 1192.1396
41.2500 1118.2678
41.2600 1094.7286
41.2700 1133.7642
41.2800 1159.6174
41.2900 1177.8022
41.3000 1039.4006
41.3100 1034.8152
41.3200 1122.0062
41.3300 1145.6666
41.3400 1127.0506
41.3500 1217.0956
41.3600 1010.8652
41.3700 1022.0354
41.3800 1089.7310
41.3900 1134.0966
41.4000 1171.1146
41.4100 848.7806
41.4200 1182.1756
41.4300 1280.9752
41.4400 1157.6952
41.4500 1163.5230
41.4600 1317.4968
41.4700 1206.9634
41.4800 1161.6124
41.4900 1267.2710
41.5000 1178.2110
41.5100 1082.7278
41.5200 1193.6804
41.5300 956.8690
41.5400 1105.6316
41.5500 1298.2290
41.5600 1033.5440
41.5700 890.4568
41.5800 1078.7808
41.5900 1157.7508
41.6000 1091.9822
41.6100 1312.4646
41.6200 1057.7498
41.6300 1184.9974
41.6400 928.0550
41.6500 773.0190
41.6600 1179.4940
41.6700 1164.6938
41.6800 969.6336
41.6900 947.5408
41.7000 1058.3560
41.7100 710.1462
41.7200 902.9010
41.7300 1020.1098
41.7400 988.2280
41.7500 998.8146
41.7600 975.3878
41.7700 1025.3412
41.7800 851.0472
41.7900 1033.8574
41.8000 1274.3640
41.8100 992.2934
41.8200 912.2644
41.8300 774.9774
41.8400 728.0422
41.8500 960.8828
41.8600 842.7812
41.8700 735.7752
41.8800 1155.8646
41.8900 1107.7166
41.9000 725.9462
41.9100 946.2456
41.9200 970.2174
41.9300 817.9038
41.9400 830.7132
41.9500 965.3600
41.9600 666.3374
41.9700 947.0944
41.9800 799.1536
41.9900 1000.9854
42.0000 1126.5652
42.0100 682.1116
42.0200 829.2008
42.0300 831.6842
42.0400 1299.9844
42.0500 846.3784
42.0600 1138.0898
42.0700 1134.3036
42.0800 1029.1972
42.0900 740.0710
42.1000 843.5594
42.1100 863.6616
42.1200 785.2328
42.1300 1128.0640
42.1400 1079.2196
42.1500 783.8844
42.1600 943.0228
42.1700 859.6348
42.1800 913.5620
42.1900 759.4910
42.2000 852.8426
42.2100 1097.7886
42.2200 1121.3990
42.2300 1003.7810
42.2400 959.9140
42.2500 992.1810
42.2600 1008.9024
42.2700 830.7526
42.2800 899.7508
42.2900 956.1498
42.3000 929.9268
42.3100 809.4490
42.3200 865.8734
42.3300 1067.1834
42.3400 1278.4734
42.3500 1008.8500
42.3600 1013.2106
42.3700 1139.6376
42.3800 830.1904
42.3900 996.9940
42.4000 850.7316
42.4100 860.9464
42.4200 971.2252
42.4300 878.9858
42.4400 702.2782
42.4500 1019.7440
42.4600 1109.5508
42.4700 845.7004
42.4800 766.8262
42.4900 778.4466
42.5000 918.4234
42.5100 730.1102
42.5200 1057.7792
42.5300 763.4726
42.5400 791.0068
42.5500 1016.6096
42.5600 977.8968
42.5700 870.8792
42.5800 904.5200
42.5900 728.8696
42.6000 908.8950
42.6100 927.2350
42.6200 794.9082
42.6300 659.2238
42.6400 1022.0184
42.6500 793.4828
42.6600 775.8430
42.6700 842.7236
42.6800 941.9242
42.6900 1018.7210
42.7000 940.7746
42.7100 1315.1848
42.7200 1014.1142
42.7300 846.0550
42.7400 1006.4096
42.7500 669.8572
42.7600 912.7732
42.7700 794.5594
42.7800 666.2548
42.7900 932.9902
42.8000 1137.2218
42.8100 730.8764
42.8200 771.3712
42.8300 590.2024
42.8400 888.7952
42.8500 885.5364
42.8600 944.9612
42.8700 990.5366
42.8800 769.9200
42.8900 910.5818
42.9000 903.4056
42.9100 713.6662
42.9200 833.6962
42.9300 777.5550
42.9400 646.9740
42.9500 1078.9894
42.9600 1109.9602
42.9700 1180.8444
42.9800 1028.9990
42.9900 1000.8446
43.0000 1117.8454
43.0100 873.1988
43.0200 867.5696
43.0300 1191.5452
43.0400 1090.6620
43.0500 837.6528
43.0600 970.4888
43.0700 767.2910
43.0800 891.7376
43.0900 1118.8902
43.1000 755.2928
43.1100 994.6552
43.1200 1097.1696
43.1300 924.1026
43.1400 1066.9404
43.1500 1245.1080
43.1600 1108.8500
43.1700 1185.1350
43.1800 836.0442
43.1900 928.9720
43.2000 967.7520
43.2100 1124.9176
43.2200 1033.3380
43.2300 1074.6926
43.2400 1264.5860
43.2500 1310.0162
43.2600 1293.6592
43.2700 1438.4068
43.2800 1335.8882
43.2900 1448.8948
43.3000 1379.6742
43.3100 1541.0912
43.3200 1557.1854
43.3300 1575.7340
43.3400 1634.1350
43.3500 1700.0326
43.3600 1814.0806
43.3700 2227.8712
43.3800 2709.7720
43.3900 2436.1618
43.4000 2691.6484
43.4100 3159.9978
43.4200 3307.2452
43.4300 3397.6196
43.4400 3598.7178
43.4500 3586.1766
43.4600 3566.0776
43.4700 3672.0064
43.4800 3279.9688
43.4900 3349.3452
43.5000 3299.1166
43.5100 3538.1200
43.5200 2992.0188
43.5300 3090.8304
43.5400 2927.9396
43.5500 2954.9608
43.5600 2998.7580
43.5700 3251.1082
43.5800 2675.5448
43.5900 2691.5512
43.6000 2684.8234
43.6100 2217.6710
43.6200 2121.4440
43.6300 2404.6176
43.6400 1767.9872
43.6500 1641.2350
43.6600 1312.9866
43.6700 1280.7852
43.6800 1400.6932
43.6900 1291.1212
43.7000 1396.5756
43.7100 1139.7560
43.7200 974.7196
43.7300 1165.6086
43.7400 912.9306
43.7500 985.2434
43.7600 1242.2056
43.7700 1249.0668
43.7800 1114.2530
43.7900 1116.4022
43.8000 901.1328
43.8100 1140.2002
43.8200 1003.3046
43.8300 919.6110
43.8400 729.8612
43.8500 769.4410
43.8600 855.3808
43.8700 823.0154
43.8800 838.6178
43.8900 926.4234
43.9000 792.7934
43.9100 877.6354
43.9200 841.3610
43.9300 678.4472
43.9400 752.7814
43.9500 802.1100
43.9600 1093.2156
43.9700 1002.9084
43.9800 962.3360
43.9900 645.2970
44.0000 554.1788
44.0100 839.6696
44.0200 808.1620
44.0300 1011.4072
44.0400 916.7412
44.0500 643.9126
44.0600 969.2420
44.0700 1008.4866
44.0800 923.1544
44.0900 953.3686
44.1000 969.6976
44.1100 1093.2304
44.1200 928.7712
44.1300 952.1280
44.1400 881.2632
44.1500 490.1388
44.1600 827.3586
44.1700 686.2334
44.1800 659.6968
44.1900 629.8842
44.2000 707.6906
44.2100 749.9988
44.2200 778.7970
44.2300 753.7126
44.2400 1015.5184
44.2500 667.9756
44.2600 788.0020
44.2700 524.8778
44.2800 706.7610
44.2900 738.4088
44.3000 700.9662
44.3100 651.2530
44.3200 948.8038
44.3300 832.4880
44.3400 825.3056
44.3500 639.7962
44.3600 754.6230
44.3700 761.0392
44.3800 989.7094
44.3900 779.9362
44.4000 779.5022
44.4100 886.6536
44.4200 924.9880
44.4300 784.1574
44.4400 785.5790
44.4500 582.6520
44.4600 1019.0778
44.4700 1219.3090
44.4800 878.8592
44.4900 577.0182
44.5000 936.1024
44.5100 899.0284
44.5200 847.7092
44.5300 663.2830
44.5400 847.3146
44.5500 682.1356
44.5600 1016.4148
44.5700 836.8452
44.5800 765.1704
44.5900 653.2230
44.6000 862.4826
44.6100 783.0508
44.6200 907.5028
44.6300 625.4864
44.6400 1007.9524
44.6500 1195.4854
44.6600 1082.7782
44.6700 846.0468
44.6800 835.4444
44.6900 919.4184
44.7000 766.3610
44.7100 813.0776
44.7200 778.0268
44.7300 849.0040
44.7400 934.3432
44.7500 950.0690
44.7600 1064.8916
44.7700 949.5538
44.7800 887.0614
44.7900 576.7090
44.8000 659.9102
44.8100 715.1716
44.8200 895.9696
44.8300 850.4052
44.8400 767.4258
44.8500 738.1258
44.8600 896.1960
44.8700 863.3444
44.8800 839.3770
44.8900 722.8358
44.9000 691.1504
44.9100 772.0322
44.9200 977.9274
44.9300 592.5698
44.9400 763.0250
44.9500 871.8858
44.9600 804.7700
44.9700 781.9394
44.9800 683.5192
44.9900 659.4348
45.0000 690.9760
45.0100 746.5982
45.0200 854.2078
45.0300 847.9728
45.0400 653.6726
45.0500 791.0124
45.0600 770.5438
45.0700 908.6726
45.0800 569.3786
45.0900 780.5252
45.1000 835.7418
45.1100 768.3988
45.1200 778.8272
45.1300 770.3922
45.1400 838.7058
45.1500 807.4094
45.1600 739.3328
45.1700 971.4574
45.1800 952.3464
45.1900 842.8248
45.2000 736.6692
45.2100 862.4684
45.2200 844.9076
45.2300 987.4124
45.2400 1068.6866
45.2500 790.8304
45.2600 1114.2812
45.2700 764.5272
45.2800 979.0116
45.2900 905.1884
45.3000 828.9298
45.3100 758.6416
45.3200 909.1646
45.3300 910.0972
45.3400 636.9074
45.3500 1079.1146
45.3600 958.6294
45.3700 1164.9318
45.3800 898.3456
45.3900 972.4316
45.4000 1183.6400
45.4100 1195.9458
45.4200 1067.7464
45.4300 875.2860
45.4400 835.0808
45.4500 998.8434
45.4600 1142.6928
45.4700 1025.6438
45.4800 935.2000
45.4900 765.4550
45.5000 943.4732
45.5100 1146.4060
45.5200 1026.5002
45.5300 817.7002
45.5400 1036.1464
45.5500 945.0294
45.5600 860.2404
45.5700 785.2396
45.5800 758.5032
45.5900 1119.5272
45.6000 727.4134
45.6100 879.1182
45.6200 845.8148
45.6300 718.0534
45.6400 772.8014
45.6500 895.1738
45.6600 630.8976
45.6700 715.2622
45.6800 777.6462
45.6900 781.0808
45.7000 798.4616
45.7100 650.7182
45.7200 559.2154
45.7300 775.1666
45.7400 712.8010
45.7500 1043.0546
45.7600 872.4736
45.7700 826.0026
45.7800 660.7204
45.7900 1026.0330
45.8000 726.7846
45.8100 687.3416
45.8200 777.9856
45.8300 1002.0598
45.8400 745.9106
45.8500 899.2436
45.8600 1085.3012
45.8700 764.9484
45.8800 859.3302
45.8900 887.6970
45.9000 934.9066
45.9100 886.9514
45.9200 706.0042
45.9300 868.2328
45.9400 960.4948
45.9500 779.7780
45.9600 1062.3056
45.9700 1032.2016
45.9800 1029.8316
45.9900 1071.6986
46.0000 841.4332
46.0100 913.2872
46.0200 991.9684
46.0300 986.8496
46.0400 1215.1676
46.0500 921.0782
46.0600 984.4264
46.0700 885.1214
46.0800 947.5988
46.0900 991.7730
46.1000 1100.4712
46.1100 560.6890
46.1200 672.0086
46.1300 820.6978
46.1400 804.8832
46.1500 727.6754
46.1600 575.0594
46.1700 808.8408
46.1800 737.8396
46.1900 871.8342
46.2000 1064.4374
46.2100 769.7316
46.2200 706.2206
46.2300 890.9964
46.2400 700.4868
46.2500 666.9856
46.2600 718.2188
46.2700 721.4286
46.2800 526.8248
46.2900 750.1824
46.3000 740.8010
46.3100 840.0014
46.3200 720.8042
46.3300 793.8428
46.3400 709.4748
46.3500 674.5708
46.3600 875.7404
46.3700 581.8744
46.3800 827.7988
46.3900 969.6656
46.4000 586.0492
46.4100 690.1166
46.4200 783.3482
46.4300 648.9744
46.4400 814.2452
46.4500 635.3006
46.4600 764.4898
46.4700 492.8462
46.4800 698.7548
46.4900 587.4316
46.5000 700.6380
46.5100 460.3164
46.5200 603.1148
46.5300 583.2464
46.5400 782.9496
46.5500 390.2826
46.5600 581.4526
46.5700 657.6346
46.5800 958.2008
46.5900 675.6652
46.6000 490.3874
46.6100 540.8086
46.6200 446.7764
46.6300 702.9862
46.6400 543.8934
46.6500 782.3624
46.6600 648.5150
46.6700 545.1636
46.6800 866.8510
46.6900 772.5238
46.7000 1050.6812
46.7100 736.8590
46.7200 773.5766
46.7300 685.8140
46.7400 693.8496
46.7500 793.5098
46.7600 710.0698
46.7700 791.8082
46.7800 705.9912
46.7900 544.6004
46.8000 621.5286
46.8100 561.3342
46.8200 898.0512
46.8300 486.8216
46.8400 693.6180
46.8500 702.5164
46.8600 741.6212
46.8700 828.2210
46.8800 493.2012
46.8900 626.5694
46.9000 581.0252
46.9100 730.1982
46.9200 837.3766
46.9300 466.6202
46.9400 650.6134
46.9500 738.4366
46.9600 651.7866
46.9700 709.7070
46.9800 934.4192
46.9900 592.5448
47.0000 998.3232
47.0100 742.9974
47.0200 710.5868
47.0300 735.3112
47.0400 759.6436
47.0500 705.1024
47.0600 652.7838
47.0700 650.9480
47.0800 650.4740
47.0900 471.3646
47.1000 845.4812
47.1100 731.7226
47.1200 710.3164
47.1300 787.1986
47.1400 935.0012
47.1500 432.7812
47.1600 626.1620
47.1700 667.1714
47.1800 604.8998
47.1900 665.5446
47.2000 674.3644
47.2100 770.2788
47.2200 530.8096
47.2300 580.7400
47.2400 645.7300
47.2500 784.5664
47.2600 497.2500
47.2700 668.5040
47.2800 917.6144
47.2900 836.6368
47.3000 572.3160
47.3100 761.6034
47.3200 615.8780
47.3300 593.8456
47.3400 727.8894
47.3500 532.6968
47.3600 656.0800
47.3700 585.3590
47.3800 563.2792
47.3900 773.9988
47.4000 802.8706
47.4100 652.2432
47.4200 737.7170
47.4300 747.8508
47.4400 693.6638
47.4500 691.5176
47.4600 819.4794
47.4700 619.6948
47.4800 600.4972
47.4900 659.6304
47.5000 880.7174
47.5100 684.5940
47.5200 741.4024
47.5300 721.9448
47.5400 787.2248
47.5500 718.7606
47.5600 737.3720
47.5700 628.2324
47.5800 640.8420
47.5900 783.3332
47.6000 347.5814
47.6100 589.6476
47.6200 641.1786
47.6300 520.9534
47.6400 610.2952
47.6500 470.9782
47.6600 725.9400
47.6700 804.0766
47.6800 866.3204
47.6900 615.1248
47.7000 743.7058
47.7100 507.0902
47.7200 618.6180
47.7300 617.7650
47.7400 530.4464
47.7500 622.5270
47.7600 532.9112
47.7700 594.0104
47.7800 532.1240
47.7900 684.0040
47.8000 924.3686
47.8100 512.3322
47.8200 590.7894
47.8300 754.7228
47.8400 669.6504
47.8500 694.2222
47.8600 750.9720
47.8700 741.4934
47.8800 569.1630
47.8900 903.0748
47.9000 667.7208
47.9100 733.4744
47.9200 897.6172
47.9300 603.2296
47.9400 668.4632
47.9500 668.6488
47.9600 390.3094
47.9700 636.2526
47.9800 918.4266
47.9900 770.5870
48.0000 638.8608
48.0100 719.7962
48.0200 635.7986
48.0300 690.1308
48.0400 670.7604
48.0500 803.1442
48.0600 597.1632
48.0700 597.0798
48.0800 735.7184
48.0900 750.5338
48.1000 824.2548
48.1100 917.1788
48.1200 809.5836
48.1300 515.6262
48.1400 560.3562
48.1500 765.8744
48.1600 750.8118
48.1700 719.6748
48.1800 694.2020
48.1900 681.3280
48.2000 707.6294
48.2100 723.9238
48.2200 655.7712
48.2300 667.8200
48.2400 607.2148
48.2500 816.9804
48.2600 705.3086
48.2700 621.9848
48.2800 793.9228
48.2900 783.5914
48.3000 816.2708
48.3100 933.0528
48.3200 720.3662
48.3300 610.9416
48.3400 710.5086
48.3500 851.5050
48.3600 920.9374
48.3700 977.0142
48.3800 1063.7312
48.3900 601.8108
48.4000 700.1692
48.4100 717.5908
48.4200 699.0768
48.4300 829.9226
48.4400 573.3198
48.4500 886.5542
48.4600 724.5544
48.4700 848.4530
48.4800 694.9228
48.4900 660.1286
48.5000 628.0128
48.5100 690.8410
48.5200 721.0744
48.5300 862.1106
48.5400 535.2432
48.5500 718.9050
48.5600 660.7168
48.5700 727.1590
48.5800 593.4634
48.5900 691.5944
48.6000 491.3118
48.6100 628.8640
48.6200 613.2054
48.6300 586.6258
48.6400 727.6632
48.6500 691.4690
48.6600 662.1758
48.6700 668.3346
48.6800 611.6714
48.6900 613.0046
48.7000 692.8444
48.7100 795.6894
48.7200 496.5588
48.7300 621.0310
48.7400 613.5180
48.7500 600.7622
48.7600 702.7752
48.7700 515.7330
48.7800 673.8202
48.7900 851.8476
48.8000 633.6306
48.8100 631.7948
48.8200 667.3282
48.8300 715.4532
48.8400 529.8288
48.8500 635.0202
48.8600 864.6864
48.8700 645.6378
48.8800 1000.0414
48.8900 377.0120
48.9000 799.7426
48.9100 584.0024
48.9200 716.8768
48.9300 630.0910
48.9400 626.1850
48.9500 677.6988
48.9600 849.6820
48.9700 1001.2234
48.9800 848.4396
48.9900 610.1574
49.0000 949.9984
49.0100 821.6940
49.0200 808.7924
49.0300 736.0034
49.0400 698.1424
49.0500 873.8710
49.0600 650.5378
49.0700 762.0258
49.0800 713.9398
49.0900 703.8270
49.1000 715.1350
49.1100 591.7560
49.1200 845.2208
49.1300 759.0642
49.1400 805.0458
49.1500 844.6392
49.1600 895.3440
49.1700 724.1146
49.1800 446.1696
49.1900 618.0612
49.2000 794.6146
49.2100 725.8384
49.2200 589.7446
49.2300 724.4944
49.2400 732.5460
49.2500 820.9224
49.2600 485.4824
49.2700 620.8866
49.2800 742.2188
49.2900 592.7388
49.3000 660.6616
49.3100 661.8194
49.3200 856.2616
49.3300 523.9250
49.3400 883.8560
49.3500 620.7966
49.3600 673.5148
49.3700 793.3106
49.3800 612.8464
49.3900 825.5362
49.4000 642.9162
49.4100 858.6810
49.4200 693.2198
49.4300 439.4644
49.4400 468.6612
49.4500 991.3426
49.4600 832.6540
49.4700 956.4292
49.4800 880.2548
49.4900 556.1534
49.5000 626.5240
49.5100 614.5090
49.5200 599.3876
49.5300 708.7820
49.5400 608.6962
49.5500 782.7144
49.5600 624.1474
49.5700 682.0596
49.5800 789.3794
49.5900 745.0288
49.6000 644.8302
49.6100 552.1442
49.6200 796.8426
49.6300 739.7010
49.6400 710.9764
49.6500 800.8970
49.6600 678.5024
49.6700 792.4218
49.6800 952.7780
49.6900 762.2436
49.7000 743.3854
49.7100 524.2438
49.7200 741.8556
49.7300 570.4686
49.7400 555.1034
49.7500 547.1848
49.7600 507.6018
49.7700 815.9106
49.7800 687.0116
49.7900 820.0988
49.8000 607.2170
49.8100 658.5054
49.8200 659.4836
49.8300 684.5076
49.8400 509.5432
49.8500 591.7024
49.8600 644.7586
49.8700 564.5628
49.8800 749.9592
49.8900 440.9924
49.9000 765.7216
49.9100 653.2838
49.9200 828.5356
49.9300 649.4444
49.9400 755.3178
49.9500 646.4134
49.9600 657.7762
49.9700 676.5002
49.9800 637.8348
49.9900 903.5968
50.0000 634.7330
50.0100 706.6266
50.0200 713.9212
50.0300 606.7118
50.0400 671.0754
50.0500 854.6498
50.0600 778.6260
50.0700 829.7306
50.0800 807.9992
50.0900 694.5042
50.1000 709.0646
50.1100 781.2692
50.1200 706.4142
50.1300 736.2910
50.1400 876.1570
50.1500 837.1960
50.1600 772.5832
50.1700 754.5796
50.1800 797.8260
50.1900 603.9280
50.2000 640.0500
50.2100 638.6264
50.2200 775.1400
50.2300 720.9908
50.2400 756.6064
50.2500 1060.5876
50.2600 942.3944
50.2700 994.8104
50.2800 995.4514
50.2900 996.4542
50.3000 1031.1228
50.3100 1054.9512
50.3200 934.0292
50.3300 1055.3808
50.3400 962.8198
50.3500 1226.7748
50.3600 1307.1524
50.3700 1067.0954
50.3800 1020.3470
50.3900 1089.5960
50.4000 1196.9040
50.4100 1166.4304
50.4200 1399.8714
50.4300 1323.3872
50.4400 1151.7168
50.4500 1039.3076
50.4600 1666.8344
50.4700 1508.7534
50.4800 1705.9152
50.4900 1592.0578
50.5000 1117.6366
50.5100 1627.6232
50.5200 1801.3472
50.5300 1959.6960
50.5400 1725.6900
50.5500 1715.6742
50.5600 2036.5816
50.5700 2212.4856
50.5800 2032.3992
50.5900 2065.3316
50.6000 2781.3940
50.6100 2047.8614
50.6200 2432.8708
50.6300 2249.7788
50.6400 2234.4206
50.6500 2366.9090
50.6600 2358.5152
50.6700 2200.1258
50.6800 2174.0748
50.6900 2022.5344
50.7000 2048.3458
50.7100 2049.7956
50.7200 1898.4274
50.7300 1929.3450
50.7400 2190.3990
50.7500 1851.1764
50.7600 1880.4958
50.7700 2055.0152
50.7800 1666.4208
50.7900 1876.1830
50.8000 1796.8832
50.8100 1493.0080
50.8200 1760.3200
50.8300 1469.4370
50.8400 1207.8268
50.8500 1171.6190
50.8600 1487.9148
50.8700 1552.9416
50.8800 1039.8686
50.8900 1127.7378
50.9000 1188.7972
50.9100 1090.9316
50.9200 1179.5158
50.9300 945.4026
50.9400 1150.7010
50.9500 1121.5662
50.9600 929.1864
50.9700 985.6124
50.9800 962.0918
50.9900 879.6576
51.0000 606.8200
51.0100 751.0888
51.0200 768.2540
51.0300 716.6456
51.0400 743.2058
51.0500 703.1052
51.0600 776.7952
51.0700 890.8474
51.0800 748.0442
51.0900 928.3884
51.1000 825.5500
51.1100 771.7338
51.1200 815.6168
51.1300 892.8740
51.1400 815.3934
51.1500 634.1768
51.1600 669.3670
51.1700 630.1686
51.1800 856.4546
51.1900 727.0946
51.2000 743.8762
51.2100 579.2952
51.2200 684.6362
51.2300 798.6350
51.2400 543.7046
51.2500 824.6594
51.2600 999.2202
51.2700 703.7068
51.2800 734.4436
51.2900 690.5054
51.3000 863.3396
51.3100 474.1044
51.3200 563.6196
51.3300 758.0000
51.3400 699.9506
51.3500 665.3934
51.3600 666.3668
51.3700 549.4682
51.3800 879.9694
51.3900 696.8674
51.4000 553.4320
51.4100 607.3774
51.4200 551.1150
51.4300 779.8318
51.4400 692.1372
51.4500 581.6192
51.4600 757.5880
51.4700 670.1806
51.4800 633.2118
51.4900 727.8046
51.5000 961.8144
51.5100 832.2354
51.5200 638.8506
51.5300 400.4718
51.5400 691.2880
51.5500 762.9372
51.5600 1036.5876
51.5700 729.7442
51.5800 865.7684
51.5900 819.6516
51.6000 663.9032
51.6100 612.9374
51.6200 571.1104
51.6300 637.4350
51.6400 722.6692
51.6500 608.1952
51.6600 628.8760
51.6700 708.0130
51.6800 647.3292
51.6900 568.5470
51.7000 862.7562
51.7100 856.7224
51.7200 771.5128
51.7300 714.8688
51.7400 893.6656
51.7500 611.0384
51.7600 743.1642
51.7700 868.3550
51.7800 805.7046
51.7900 609.8106
51.8000 553.0118
51.8100 865.3282
51.8200 898.4652
51.8300 411.1924
51.8400 650.9748
51.8500 932.6778
51.8600 848.8288
51.8700 839.0120
51.8800 709.2374
51.8900 857.8944
51.9000 551.9576
51.9100 616.2382
51.9200 714.9250
51.9300 730.4478
51.9400 715.1440
51.9500 679.4042
51.9600 651.5500
51.9700 587.7752
51.9800 838.5184
51.9900 564.5746
52.0000 922.5634
52.0100 804.9892
52.0200 685.5334
52.0300 733.0174
52.0400 664.6842
52.0500 700.7032
52.0600 750.4624
52.0700 777.7958
52.0800 820.3894
52.0900 738.3578
52.1000 872.0684
52.1100 815.1070
52.1200 882.9228
52.1300 774.7352
52.1400 742.1888
52.1500 841.3286
52.1600 751.4734
52.1700 724.7884
52.1800 767.6888
52.1900 570.8658
52.2000 688.6018
52.2100 613.3426
52.2200 501.1934
52.2300 837.7710
52.2400 728.6128
52.2500 734.9910
52.2600 670.3142
52.2700 847.0114
52.2800 830.8794
52.2900 605.4082
52.3000 552.5602
52.3100 538.2266
52.3200 733.9706
52.3300 683.0778
52.3400 571.5716
52.3500 797.4316
52.3600 663.6120
52.3700 670.8238
52.3800 734.7514
52.3900 922.2678
52.4000 502.2052
52.4100 517.0408
52.4200 715.0552
52.4300 611.3826
52.4400 610.6682
52.4500 666.2622
52.4600 737.2540
52.4700 801.5846
52.4800 851.0988
52.4900 663.6058
52.5000 707.0426
52.5100 555.9066
52.5200 663.1396
52.5300 824.3000
52.5400 846.9300
52.5500 736.6364
52.5600 993.9982
52.5700 614.5510
52.5800 991.4992
52.5900 908.6002
52.6000 775.9712
52.6100 720.0158
52.6200 719.1766
52.6300 727.0456
52.6400 885.9128
52.6500 782.2252
52.6600 731.2656
52.6700 775.0028
52.6800 828.3474
52.6900 726.0066
52.7000 418.8830
52.7100 986.9430
52.7200 727.5318
52.7300 1014.0992
52.7400 847.2762
52.7500 1033.3486
52.7600 1032.4770
52.7700 882.5524
52.7800 1162.4872
52.7900 1326.1952
52.8000 1082.7120
52.8100 1108.5020
52.8200 1207.5440
52.8300 1152.5460
52.8400 1163.8182
52.8500 1374.1566
52.8600 1209.4496
52.8700 1055.6664
52.8800 1344.3764
52.8900 1052.0036
52.9000 1095.8614
52.9100 886.1308
52.9200 1137.6196
52.9300 829.4908
52.9400 810.6020
52.9500 921.8930
52.9600 730.9476
52.9700 961.9380
52.9800 1146.4450
52.9900 903.1228
53.0000 1107.7686
53.0100 794.1302
53.0200 1030.1884
53.0300 823.2672
53.0400 900.7208
53.0500 840.2584
53.0600 775.2718
53.0700 784.3222
53.0800 782.0502
53.0900 482.2870
53.1000 786.0744
53.1100 376.9784
53.1200 718.1116
53.1300 676.4542
53.1400 910.0040
53.1500 882.1174
53.1600 807.7038
53.1700 834.2920
53.1800 612.3978
53.1900 588.2868
53.2000 576.7760
53.2100 745.1910
53.2200 495.5736
53.2300 688.9642
53.2400 737.9766
53.2500 934.2584
53.2600 546.7662
53.2700 820.1036
53.2800 718.3252
53.2900 767.5046
53.3000 695.4512
53.3100 690.4930
53.3200 549.6576
53.3300 880.5266
53.3400 734.8020
53.3500 635.8310
53.3600 500.2246
53.3700 665.5964
53.3800 425.9672
53.3900 699.7066
53.4000 576.9732
53.4100 587.9272
53.4200 688.8640
53.4300 515.1464
53.4400 891.0712
53.4500 545.0046
53.4600 846.0268
53.4700 806.8742
53.4800 658.3974
53.4900 841.5762
53.5000 777.9260
53.5100 471.5034
53.5200 694.9354
53.5300 546.5324
53.5400 724.4226
53.5500 555.0400
53.5600 626.5570
53.5700 551.5456
53.5800 847.2176
53.5900 446.2072
53.6000 570.7036
53.6100 584.2996
53.6200 477.9884
53.6300 507.1084
53.6400 606.2430
53.6500 605.9854
53.6600 741.6762
53.6700 711.8484
53.6800 779.6570
53.6900 678.6268
53.7000 729.6022
53.7100 594.5974
53.7200 501.0694
53.7300 730.4392
53.7400 646.9140
53.7500 600.7498
53.7600 727.4540
53.7700 819.7176
53.7800 840.9856
53.7900 644.4944
53.8000 682.9862
53.8100 699.4866
53.8200 579.7958
53.8300 699.0472
53.8400 688.7454
53.8500 431.5156
53.8600 683.9032
53.8700 852.1088
53.8800 653.0806
53.8900 805.0206
53.9000 390.2748
53.9100 684.7984
53.9200 731.6422
53.9300 633.3480
53.9400 735.4580
53.9500 802.1352
53.9600 736.8616
53.9700 816.6968
53.9800 754.1876
53.9900 570.3522
54.0000 601.5616
54.0100 478.0526
54.0200 644.6958
54.0300 557.7316
54.0400 739.4942
54.0500 645.0488
54.0600 699.1936
54.0700 625.4956
54.0800 679.8174
54.0900 564.1986
54.1000 559.0060
54.1100 448.2354
54.1200 692.8154
54.1300 841.9548
54.1400 638.7670
54.1500 641.0484
54.1600 805.8470
54.1700 805.1116
54.1800 694.7804
54.1900 620.7358
54.2000 524.1494
54.2100 743.3364
54.2200 816.3030
54.2300 734.8700
54.2400 731.3596
54.2500 486.9446
54.2600 674.0016
54.2700 827.5842
54.2800 711.6954
54.2900 537.5164
54.3000 712.5024
54.3100 507.6108
54.3200 783.6472
54.3300 721.8556
54.3400 588.7284
54.3500 494.9784
54.3600 682.9142
54.3700 593.8536
54.3800 627.6770
54.3900 867.8214
54.4000 470.4558
54.4100 664.0922
54.4200 798.3250
54.4300 740.8384
54.4400 700.8642
54.4500 684.3674
54.4600 583.0440
54.4700 698.4998
54.4800 612.1862
54.4900 664.1468
54.5000 589.9404
54.5100 686.6398
54.5200 727.5444
54.5300 624.0374
54.5400 550.3504
54.5500 414.2656
54.5600 607.3250
54.5700 600.1084
54.5800 458.8766
54.5900 723.5036
54.6000 716.6012
54.6100 539.3552
54.6200 678.3748
54.6300 722.1804
54.6400 751.4938
54.6500 548.0754
54.6600 493.1560
54.6700 537.8168
54.6800 479.4288
54.6900 823.7052
54.7000 892.8336
54.7100 608.0278
54.7200 590.7486
54.7300 615.5070
54.7400 714.8964
54.7500 989.6528
54.7600 664.5040
54.7700 818.3844
54.7800 725.1050
54.7900 811.5846
54.8000 767.5286
54.8100 593.6708
54.8200 717.6470
54.8300 768.4668
54.8400 667.7966
54.8500 795.6986
54.8600 819.2694
54.8700 721.6622
54.8800 784.5486
54.8900 858.8708
54.9000 993.3792
54.9100 890.4796
54.9200 924.9158
54.9300 981.5868
54.9400 723.7970
54.9500 851.0058
54.9600 1015.2196
54.9700 933.0844
54.9800 1002.9036
54.9900 1210.4160
55.0000 791.1898
55.0100 1031.4086
55.0200 1051.1286
55.0300 1066.5008
55.0400 894.1828
55.0500 910.5680
55.0600 834.0268
55.0700 939.4854
55.0800 887.6472
55.0900 859.6346
55.1000 747.8810
55.1100 1021.6908
55.1200 626.2630
55.1300 1022.8254
55.1400 755.4708
55.1500 929.3312
55.1600 702.5824
55.1700 927.0342
55.1800 700.9930
55.1900 753.0818
55.2000 666.2974
55.2100 700.6698
55.2200 570.3400
55.2300 781.7664
55.2400 714.2328
55.2500 538.2462
55.2600 937.6008
55.2700 942.8774
55.2800 464.1456
55.2900 713.9548
55.3000 794.3672
55.3100 548.1842
55.3200 549.5724
55.3300 759.7202
55.3400 620.6978
55.3500 767.2732
55.3600 741.6436
55.3700 700.7778
55.3800 710.3818
55.3900 708.2484
55.4000 551.7324
55.4100 615.7942
55.4200 716.7844
55.4300 848.9106
55.4400 759.1314
55.4500 640.7666
55.4600 716.4998
55.4700 622.4420
55.4800 698.8210
55.4900 707.9970
55.5000 782.9554
55.5100 944.8318
55.5200 796.5712
55.5300 836.2554
55.5400 684.6446
55.5500 732.8388
55.5600 566.7036
55.5700 796.9600
55.5800 633.4734
55.5900 882.2472
55.6000 733.0290
55.6100 694.6074
55.6200 695.5500
55.6300 478.9416
55.6400 610.3830
55.6500 583.9996
55.6600 976.3514
55.6700 932.1274
55.6800 563.0298
55.6900 880.4580
55.7000 663.4220
55.7100 732.4956
55.7200 632.6528
55.7300 531.7856
55.7400 570.6454
55.7500 452.7508
55.7600 617.4090
55.7700 601.8010
55.7800 532.3466
55.7900 626.6520
55.8000 452.5060
55.8100 620.2704
55.8200 753.2924
55.8300 610.0846
55.8400 862.8026
55.8500 511.8930
55.8600 730.5888
55.8700 851.5664
55.8800 612.2254
55.8900 632.3384
55.9000 732.8588
55.9100 799.4200
55.9200 691.9708
55.9300 428.7128
55.9400 647.2940
55.9500 653.9562
55.9600 724.6772
55.9700 591.4838
55.9800 558.5900
55.9900 615.1826
56.0000 489.2498
56.0100 501.6724
56.0200 630.7464
56.0300 438.6778
56.0400 649.0372
56.0500 716.6974
56.0600 643.6166
56.0700 794.1018
56.0800 579.7236
56.0900 757.9016
56.1000 698.9750
56.1100 637.4720
56.1200 577.4116
56.1300 696.3538
56.1400 592.9042
56.1500 642.6472
56.1600 730.2894
56.1700 401.3380
56.1800 759.1692
56.1900 668.3466
56.2000 424.9286
56.2100 650.0210
56.2200 412.4086
56.2300 792.5622
56.2400 885.3782
56.2500 811.8876
56.2600 843.1974
56.2700 571.5384
56.2800 628.9390
56.2900 707.4850
56.3000 465.5080
56.3100 699.7754
56.3200 676.0466
56.3300 747.4514
56.3400 617.5552
56.3500 604.3188
56.3600 571.2712
56.3700 462.1678
56.3800 596.2900
56.3900 712.0562
56.4000 725.6406
56.4100 556.8970
56.4200 610.5206
56.4300 651.0180
56.4400 629.4048
56.4500 773.2400
56.4600 747.6284
56.4700 584.1304
56.4800 515.3984
56.4900 551.8148
56.5000 658.9856
56.5100 586.5866
56.5200 561.7908
56.5300 672.5364
56.5400 765.6056
56.5500 431.7150
56.5600 737.1652
56.5700 495.7684
56.5800 463.6060
56.5900 557.6222
56.6000 741.5296
56.6100 469.2142
56.6200 820.0450
56.6300 514.1560
56.6400 565.1306
56.6500 980.6974
56.6600 896.3740
56.6700 858.2544
56.6800 705.6822
56.6900 674.2284
56.7000 657.2362
56.7100 674.9238
56.7200 534.2774
56.7300 847.4762
56.7400 690.4760
56.7500 644.8034
56.7600 631.8312
56.7700 811.9344
56.7800 670.5782
56.7900 758.6142
56.8000 762.2402
56.8100 702.0944
56.8200 748.2696
56.8300 709.8512
56.8400 579.0218
56.8500 618.9770
56.8600 457.2952
56.8700 626.5642
56.8800 478.1966
56.8900 621.2868
56.9000 585.9014
56.9100 637.0866
56.9200 662.5066
56.9300 693.9578
56.9400 590.0704
56.9500 743.3588
56.9600 684.2542
56.9700 632.6264
56.9800 648.3350
56.9900 625.6038
57.0000 750.2876
57.0100 598.0096
57.0200 493.2138
57.0300 1006.1500
57.0400 878.7808
57.0500 770.1832
57.0600 658.0992
57.0700 580.1706
57.0800 544.1742
57.0900 514.3260
57.1000 416.1226
57.1100 659.8596
57.1200 668.5846
57.1300 808.3498
57.1400 799.2506
57.1500 462.0792
57.1600 675.0910
57.1700 878.9836
57.1800 681.7144
57.1900 604.2072
57.2000 647.5374
57.2100 579.0940
57.2200 583.3376
57.2300 830.0110
57.2400 697.5742
57.2500 843.7814
57.2600 887.2044
57.2700 687.8512
57.2800 633.6942
57.2900 698.4432
57.3000 698.6618
57.3100 728.3022
57.3200 801.8406
57.3300 782.6910
57.3400 638.2966
57.3500 701.0834
57.3600 749.9356
57.3700 683.4522
57.3800 587.7120
57.3900 713.5452
57.4000 723.9414
57.4100 711.2186
57.4200 665.9438
57.4300 589.3248
57.4400 684.7926
57.4500 567.7954
57.4600 724.0058
57.4700 595.1188
57.4800 592.1728
57.4900 785.8136
57.5000 769.9734
57.5100 402.4910
57.5200 669.2742
57.5300 612.9230
57.5400 738.6078
57.5500 664.4696
57.5600 710.1266
57.5700 708.2434
57.5800 666.6784
57.5900 596.1766
57.6000 659.8094
57.6100 739.4164
57.6200 783.3200
57.6300 678.0722
57.6400 682.9108
57.6500 672.5586
57.6600 586.8532
57.6700 709.8128
57.6800 703.5396
57.6900 792.2468
57.7000 864.0470
57.7100 765.3628
57.7200 847.2432
57.7300 552.9148
57.7400 623.7796
57.7500 549.1340
57.7600 472.9218
57.7700 544.0816
57.7800 516.5410
57.7900 749.3322
57.8000 522.4514
57.8100 667.8666
57.8200 636.8454
57.8300 671.6392
57.8400 437.4228
57.8500 765.2612
57.8600 719.0500
57.8700 579.0294
57.8800 539.3998
57.8900 696.4172
57.9000 596.4692
57.9100 766.2818
57.9200 757.6298
57.9300 566.9420
57.9400 624.8366
57.9500 608.0078
57.9600 760.8518
57.9700 710.0918
57.9800 647.1794
57.9900 843.2508
58.0000 692.7364
58.0100 703.1348
58.0200 569.2330
58.0300 486.4680
58.0400 621.7290
58.0500 672.6850
58.0600 747.0562
58.0700 613.3468
58.0800 647.8072
58.0900 746.4886
58.1000 749.9368
58.1100 912.4152
58.1200 733.3156
58.1300 836.7858
58.1400 728.7370
58.1500 870.8216
58.1600 739.1586
58.1700 545.2192
58.1800 758.3116
58.1900 582.0994
58.2000 577.3022
58.2100 721.1612
58.2200 807.5404
58.2300 649.8048
58.2400 638.2296
58.2500 750.8572
58.2600 746.4994
58.2700 894.9872
58.2800 688.0200
58.2900 990.1564
58.3000 763.1900
58.3100 652.2720
58.3200 801.3278
58.3300 763.0180
58.3400 716.9016
58.3500 619.4334
58.3600 608.2914
58.3700 859.3488
58.3800 807.0070
58.3900 652.1500
58.4000 698.9090
58.4100 797.3342
58.4200 504.6150
58.4300 716.8386
58.4400 627.1992
58.4500 917.2794
58.4600 608.7298
58.4700 548.8476
58.4800 692.0468
58.4900 803.8992
58.5000 838.7796
58.5100 632.8158
58.5200 684.4744
58.5300 636.7068
58.5400 603.1512
58.5500 693.5508
58.5600 945.4950
58.5700 670.9468
58.5800 679.2782
58.5900 1017.4376
58.6000 700.9194
58.6100 697.0438
58.6200 948.0752
58.6300 537.9118
58.6400 724.0184
58.6500 824.4016
58.6600 773.0872
58.6700 936.5056
58.6800 601.8604
58.6900 1006.8680
58.7000 776.5642
58.7100 752.9532
58.7200 749.2586
58.7300 1114.9554
58.7400 861.7230
58.7500 989.9658
58.7600 823.8080
58.7700 812.3538
58.7800 679.9172
58.7900 872.6220
58.8000 935.3146
58.8100 865.9098
58.8200 795.7520
58.8300 651.7396
58.8400 786.6204
58.8500 591.0540
58.8600 750.1214
58.8700 811.6852
58.8800 876.0390
58.8900 891.2318
58.9000 884.8614
58.9100 695.3218
58.9200 815.0610
58.9300 702.6524
58.9400 814.3666
58.9500 756.1452
58.9600 886.8284
58.9700 764.5834
58.9800 833.7428
58.9900 998.2340
59.0000 875.1572
59.0100 1001.7664
59.0200 896.0610
59.0300 817.9686
59.0400 702.6840
59.0500 760.6212
59.0600 979.6780
59.0700 697.6126
59.0800 947.4206
59.0900 840.5022
59.1000 1172.5850
59.1100 1198.2760
59.1200 728.5638
59.1300 884.4072
59.1400 936.5908
59.1500 1065.6212
59.1600 704.2208
59.1700 925.9244
59.1800 955.7818
59.1900 800.0924
59.2000 717.5500
59.2100 772.7114
59.2200 779.1288
59.2300 1112.3228
59.2400 776.8322
59.2500 901.9282
59.2600 831.8442
59.2700 690.0692
59.2800 868.0854
59.2900 997.5190
59.3000 982.8608
59.3100 658.0374
59.3200 734.8776
59.3300 888.2046
59.3400 701.0954
59.3500 757.1878
59.3600 781.7112
59.3700 861.0240
59.3800 750.5060
59.3900 692.5444
59.4000 807.8592
59.4100 667.6152
59.4200 827.2446
59.4300 858.5254
59.4400 715.3676
59.4500 747.4424
59.4600 1019.4660
59.4700 752.0226
59.4800 656.6144
59.4900 563.1630
59.5000 679.4686
59.5100 693.4964
59.5200 780.2350
59.5300 767.1860
59.5400 623.4510
59.5500 835.2406
59.5600 798.8642
59.5700 793.1478
59.5800 772.0774
59.5900 586.3808
59.6000 750.3344
59.6100 539.7158
59.6200 652.3672
59.6300 500.5444
59.6400 621.9432
59.6500 772.3680
59.6600 735.7234
59.6700 889.4122
59.6800 748.6546
59.6900 604.7762
59.7000 848.9314
59.7100 846.8308
59.7200 972.1730
59.7300 761.9676
59.7400 565.0124
59.7500 722.2366
59.7600 636.4312
59.7700 885.3982
59.7800 817.2986
59.7900 888.8392
59.8000 671.7156
59.8100 800.5596
59.8200 635.6358
59.8300 724.7268
59.8400 937.2784
59.8500 1145.0116
59.8600 897.6826
59.8700 550.0714
59.8800 832.1764
59.8900 716.3938
59.9000 969.7252
59.9100 924.6154
59.9200 902.0776
59.9300 906.7074
59.9400 675.8076
59.9500 867.3488
59.9600 852.6032
59.9700 955.8856
59.9800 978.7868
59.9900 916.7590
60.0000 1085.3886
60.0100 861.2592
60.0200 1089.5990
60.0300 1109.5424
60.0400 885.0816
60.0500 669.8004
60.0600 990.1830
60.0700 882.4190
60.0800 725.0328
60.0900 1125.2240
60.1000 1217.4332
60.1100 1122.6938
60.1200 1023.7686
60.1300 1152.8564
60.1400 1316.2118
60.1500 1040.2236
60.1600 962.2324
60.1700 1283.7646
60.1800 1334.4590
60.1900 1555.1958
60.2000 1246.5858
60.2100 1275.6090
60.2200 1151.7736
60.2300 1666.5132
60.2400 1428.7570
60.2500 1389.9338
60.2600 1541.0042
60.2700 1659.9708
60.2800 1753.8174
60.2900 1435.3622
60.3000 1425.2572
60.3100 1443.4530
60.3200 1344.0042
60.3300 1574.2774
60.3400 1203.1028
60.3500 1290.7970
60.3600 1480.1982
60.3700 1302.5122
60.3800 1303.9018
60.3900 1449.8536
60.4000 1363.9882
60.4100 1206.4520
60.4200 1263.7410
60.4300 1640.6018
60.4400 1284.5114
60.4500 1157.6826
60.4600 1464.6892
60.4700 1348.4104
60.4800 1249.8022
60.4900 1286.6986
60.5000 1368.3818
60.5100 1027.7676
60.5200 1282.7144
60.5300 1248.9742
60.5400 1048.7232
60.5500 1096.8506
60.5600 822.6998
60.5700 853.8296
60.5800 882.0028
60.5900 733.3672
60.6000 791.7836
60.6100 732.6980
60.6200 755.2278
60.6300 818.6086
60.6400 740.9370
60.6500 974.3398
60.6600 932.8894
60.6700 894.9414
60.6800 763.3360
60.6900 739.6360
60.7000 740.7324
60.7100 782.7710
60.7200 587.7110
60.7300 946.8716
60.7400 525.1262
60.7500 531.8382
60.7600 769.4588
60.7700 593.6272
60.7800 667.3144
60.7900 911.5192
60.8000 816.7360
60.8100 822.0884
60.8200 711.4804
60.8300 786.2968
60.8400 846.8736
60.8500 630.9010
60.8600 647.6924
60.8700 711.1332
60.8800 833.0820
60.8900 676.4450
60.9000 861.8886
60.9100 713.3292
60.9200 761.0446
60.9300 877.8884
60.9400 954.9924
60.9500 749.6910
60.9600 676.6722
60.9700 932.9076
60.9800 1001.5986
60.9900 905.2150
61.0000 808.4772
61.0100 926.4184
61.0200 915.5186
61.0300 1002.3870
61.0400 1238.8324
61.0500 886.0076
61.0600 932.7540
61.0700 1419.5064
61.0800 1250.1748
61.0900 1159.0132
61.1000 1132.7698
61.1100 1389.6186
61.1200 1352.3648
61.1300 1331.8268
61.1400 1144.9970
61.1500 1410.2998
61.1600 1354.5300
61.1700 1537.9782
61.1800 1198.6694
61.1900 1278.9836
61.2000 1221.5180
61.2100 1452.1888
61.2200 1322.1976
61.2300 1398.1590
61.2400 1292.2970
61.2500 1181.8206
61.2600 1280.2244
61.2700 1007.4760
61.2800 1184.9748
61.2900 1151.2032
61.3000 1117.3950
61.3100 1165.5136
61.3200 1075.2274
61.3300 1152.2970
61.3400 1028.6368
61.3500 1274.0202
61.3600 1053.9266
61.3700 989.6140
61.3800 916.8336
61.3900 1045.8132
61.4000 1160.6346
61.4100 1071.6866
61.4200 784.7362
61.4300 951.4818
61.4400 678.1432
61.4500 639.9356
61.4600 787.5420
61.4700 1022.3212
61.4800 855.0176
61.4900 892.5402
61.5000 811.7158
61.5100 825.7682
61.5200 667.7278
61.5300 781.9894
61.5400 782.8050
61.5500 751.2800
61.5600 788.5598
61.5700 693.3402
61.5800 714.7080
61.5900 767.0806
61.6000 981.2708
61.6100 958.9100
61.6200 778.5492
61.6300 736.0424
61.6400 817.7946
61.6500 796.5294
61.6600 789.5942
61.6700 604.3150
61.6800 853.9316
61.6900 698.0108
61.7000 743.3640
61.7100 847.7146
61.7200 879.1828
61.7300 649.0940
61.7400 710.5446
61.7500 771.3842
61.7600 780.2644
61.7700 848.9888
61.7800 922.9258
61.7900 1053.4696
61.8000 648.5504
61.8100 830.2348
61.8200 1172.0068
61.8300 773.9742
61.8400 861.9532
61.8500 958.1064
61.8600 798.6338
61.8700 864.4862
61.8800 853.3178
61.8900 855.3622
61.9000 880.5644
61.9100 886.2534
61.9200 821.9190
61.9300 679.1002
61.9400 832.7010
61.9500 675.5842
61.9600 606.3506
61.9700 938.6628
61.9800 781.2310
61.9900 638.0208
62.0000 783.8336
62.0100 905.5670
62.0200 769.5008
62.0300 849.0522
62.0400 668.6856
62.0500 658.8368
62.0600 656.0824
62.0700 580.2726
62.0800 672.9138
62.0900 495.1628
62.1000 801.4788
62.1100 642.5386
62.1200 559.8266
62.1300 817.7200
62.1400 692.5728
62.1500 948.9710
62.1600 805.1740
62.1700 752.4642
62.1800 660.9040
62.1900 662.6116
62.2000 700.8416
62.2100 801.0278
62.2200 825.7652
62.2300 584.6198
62.2400 730.3772
62.2500 561.9418
62.2600 612.5410
62.2700 836.6436
62.2800 599.3038
62.2900 731.4206
62.3000 803.7828
62.3100 737.8184
62.3200 817.7288
62.3300 719.6738
62.3400 397.9788
62.3500 730.9912
62.3600 697.3226
62.3700 641.9264
62.3800 677.6286
62.3900 705.5838
62.4000 762.5784
62.4100 581.1046
62.4200 731.0372
62.4300 665.0100
62.4400 831.0328
62.4500 908.3652
62.4600 794.8098
62.4700 763.3046
62.4800 828.4096
62.4900 705.4982
62.5000 478.0232
62.5100 467.8486
62.5200 514.4476
62.5300 698.5010
62.5400 517.8532
62.5500 498.1786
62.5600 890.0554
62.5700 691.4928
62.5800 824.1114
62.5900 719.6058
62.6000 650.9140
62.6100 913.2024
62.6200 632.7726
62.6300 833.0088
62.6400 787.7282
62.6500 682.6052
62.6600 536.8736
62.6700 685.0502
62.6800 769.1068
62.6900 858.5186
62.7000 922.9914
62.7100 672.0390
62.7200 895.0804
62.7300 759.5074
62.7400 700.5568
62.7500 877.9962
62.7600 605.0930
62.7700 689.1864
62.7800 533.4584
62.7900 778.8816
62.8000 688.6664
62.8100 765.5242
62.8200 788.6430
62.8300 796.1460
62.8400 595.3128
62.8500 637.5954
62.8600 735.6800
62.8700 696.4634
62.8800 666.7108
62.8900 739.9726
62.9000 573.9044
62.9100 674.9696
62.9200 729.4220
62.9300 909.5746
62.9400 618.8606
62.9500 823.4838
62.9600 958.1486
62.9700 1067.4832
62.9800 767.3302
62.9900 784.7906
63.0000 907.5702
63.0100 805.8384
63.0200 764.5088
63.0300 768.6410
63.0400 789.5022
63.0500 897.9256
63.0600 711.3822
63.0700 1138.6538
63.0800 997.3880
63.0900 1145.9610
63.1000 1132.2012
63.1100 768.7772
63.1200 950.7012
63.1300 1016.1548
63.1400 1230.3846
63.1500 1168.8210
63.1600 1253.1546
63.1700 1119.6990
63.1800 892.5570
63.1900 813.9444
63.2000 817.5896
63.2100 891.4542
63.2200 856.0266
63.2300 988.5756
63.2400 954.2884
63.2500 1259.2156
63.2600 995.6158
63.2700 677.6724
63.2800 843.9432
63.2900 1138.4286
63.3000 937.8402
63.3100 936.8888
63.3200 925.8258
63.3300 967.2552
63.3400 880.9050
63.3500 935.7412
63.3600 674.9608
63.3700 831.0852
63.3800 677.1264
63.3900 774.4248
63.4000 568.9196
63.4100 382.8676
63.4200 1215.3804
63.4300 1016.9320
63.4400 1042.0480
63.4500 764.1490
63.4600 608.7144
63.4700 733.8364
63.4800 914.6720
63.4900 640.2032
63.5000 966.2462
63.5100 843.6114
63.5200 740.3280
63.5300 897.9558
63.5400 505.9948
63.5500 701.7682
63.5600 726.1888
63.5700 754.4480
63.5800 874.4576
63.5900 627.8396
63.6000 545.2234
63.6100 729.4384
63.6200 888.0176
63.6300 743.2274
63.6400 747.6570
63.6500 771.3348
63.6600 819.7090
63.6700 797.4740
63.6800 886.0760
63.6900 447.8248
63.7000 838.5742
63.7100 688.5572
63.7200 587.5750
63.7300 652.2516
63.7400 709.7538
63.7500 530.0636
63.7600 471.1812
63.7700 637.2590
63.7800 775.5140
63.7900 538.0772
63.8000 628.2716
63.8100 522.0644
63.8200 454.1312
63.8300 663.7950
63.8400 679.5308
63.8500 683.8124
63.8600 507.5616
63.8700 692.8166
63.8800 663.2122
63.8900 492.8462
63.9000 529.8136
63.9100 672.7086
63.9200 515.7842
63.9300 669.7836
63.9400 878.9022
63.9500 517.7324
63.9600 482.8746
63.9700 671.1324
63.9800 880.7320
63.9900 477.6810
64.0000 634.9920
64.0100 699.8410
64.0200 732.1058
64.0300 866.8656
64.0400 649.3048
64.0500 744.4010
64.0600 600.8038
64.0700 669.6842
64.0800 671.5234
64.0900 721.0058
64.1000 862.2042
64.1100 742.4770
64.1200 512.5386
64.1300 573.2428
64.1400 750.0600
64.1500 794.6104
64.1600 458.4040
64.1700 697.9694
64.1800 1002.9078
64.1900 761.8546
64.2000 776.7302
64.2100 760.7118
64.2200 732.1174
64.2300 866.5544
64.2400 795.2398
64.2500 607.6488
64.2600 657.6442
64.2700 582.8210
64.2800 772.0050
64.2900 734.6234
64.3000 517.5968
64.3100 844.2610
64.3200 759.3438
64.3300 721.1744
64.3400 703.4476
64.3500 821.5918
64.3600 652.7032
64.3700 717.7418
64.3800 736.4912
64.3900 512.8502
64.4000 457.2354
64.4100 575.6486
64.4200 779.7712
64.4300 851.7110
64.4400 523.1630
64.4500 631.3708
64.4600 825.1948
64.4700 589.1324
64.4800 610.4152
64.4900 636.3250
64.5000 710.9802
64.5100 473.1840
64.5200 784.6954
64.5300 803.7806
64.5400 695.2542
64.5500 755.3054
64.5600 782.3426
64.5700 786.5768
64.5800 571.3082
64.5900 720.0750
64.6000 743.6610
64.6100 593.6636
64.6200 733.6378
64.6300 909.2322
64.6400 586.3374
64.6500 476.9162
64.6600 621.1106
64.6700 772.8950
64.6800 830.3710
64.6900 749.6050
64.7000 603.8778
64.7100 715.7860
64.7200 532.4526
64.7300 628.9892
64.7400 652.2158
64.7500 543.4382
64.7600 682.7790
64.7700 701.9908
64.7800 518.7660
64.7900 727.9902
64.8000 778.6126
64.8100 567.9844
64.8200 647.1666
64.8300 743.3912
64.8400 732.9098
64.8500 363.3112
64.8600 603.6112
64.8700 749.9674
64.8800 692.3150
64.8900 740.7166
64.9000 622.9518
64.9100 718.1390
64.9200 634.8416
64.9300 603.2508
64.9400 802.4258
64.9500 772.4368
64.9600 770.5288
64.9700 635.0492
64.9800 473.2644
64.9900 690.5900
65.0000 656.9044
65.0100 734.8296
65.0200 654.2486
65.0300 534.6528
65.0400 343.6154
65.0500 578.3954
65.0600 826.5930
65.0700 764.2650
65.0800 692.0964
65.0900 769.2236
65.1000 527.2152
65.1100 662.3432
65.1200 697.2526
65.1300 793.7642
65.1400 639.3788
65.1500 733.4854
65.1600 809.4388
65.1700 648.3410
65.1800 715.0300
65.1900 574.9254
65.2000 545.4370
65.2100 551.1338
65.2200 698.3298
65.2300 711.7268
65.2400 646.2990
65.2500 492.1686
65.2600 565.9130
65.2700 776.6272
65.2800 892.6074
65.2900 863.8764
65.3000 574.0808
65.3100 568.9950
65.3200 477.8430
65.3300 532.4106
65.3400 594.4258
65.3500 657.1702
65.3600 639.5914
65.3700 481.3864
65.3800 675.8146
65.3900 784.7028
65.4000 832.5886
65.4100 684.0858
65.4200 643.9614
65.4300 669.1726
65.4400 692.9712
65.4500 519.1950
65.4600 598.1512
65.4700 770.0230
65.4800 761.4986
65.4900 806.5432
65.5000 602.8084
65.5100 623.9886
65.5200 542.3218
65.5300 382.2904
65.5400 727.4280
65.5500 788.6048
65.5600 778.4520
65.5700 673.5016
65.5800 665.4602
65.5900 780.6546
65.6000 770.9018
65.6100 705.7284
65.6200 791.2866
65.6300 623.5360
65.6400 636.9062
65.6500 609.3118
65.6600 798.5514
65.6700 818.2182
65.6800 796.4288
65.6900 666.8040
65.7000 495.9408
65.7100 691.6700
65.7200 543.5848
65.7300 756.7274
65.7400 825.8132
65.7500 497.7146
65.7600 528.9268
65.7700 632.3846
65.7800 745.2640
65.7900 329.4674
65.8000 697.8904
65.8100 639.4312
65.8200 586.7902
65.8300 677.6880
65.8400 575.1798
65.8500 794.0378
65.8600 646.3418
65.8700 549.1146
65.8800 691.8214
65.8900 601.5114
65.9000 689.1564
65.9100 793.6470
65.9200 625.5610
65.9300 680.9726
65.9400 887.3726
65.9500 674.7066
65.9600 803.3838
65.9700 823.9898
65.9800 723.6376
65.9900 1006.8414
66.0000 941.5134
66.0100 736.2832
66.0200 570.2764
66.0300 763.8520
66.0400 864.7580
66.0500 655.9130
66.0600 820.7682
66.0700 717.9026
66.0800 663.4932
66.0900 679.4078
66.1000 681.5262
66.1100 566.0258
66.1200 738.2922
66.1300 874.6468
66.1400 725.3278
66.1500 876.4282
66.1600 730.1470
66.1700 584.0696
66.1800 581.3742
66.1900 761.7608
66.2000 631.5536
66.2100 727.2232
66.2200 594.0206
66.2300 698.9582
66.2400 572.4982
66.2500 705.3254
66.2600 745.1688
66.2700 712.4458
66.2800 602.1390
66.2900 672.3950
66.3000 865.1004
66.3100 860.4770
66.3200 892.9246
66.3300 742.1342
66.3400 656.4908
66.3500 711.0428
66.3600 531.7100
66.3700 300.1294
66.3800 606.5126
66.3900 809.7414
66.4000 798.5958
66.4100 624.8114
66.4200 437.7146
66.4300 402.7414
66.4400 764.0958
66.4500 620.2324
66.4600 698.1940
66.4700 736.3192
66.4800 710.6112
66.4900 721.1944
66.5000 709.7934
66.5100 625.3104
66.5200 714.3950
66.5300 905.1852
66.5400 766.4744
66.5500 646.2332
66.5600 671.0914
66.5700 620.1112
66.5800 728.8924
66.5900 780.3270
66.6000 781.6110
66.6100 743.7456
66.6200 656.0692
66.6300 567.9538
66.6400 582.2724
66.6500 685.5902
66.6600 902.9942
66.6700 658.7812
66.6800 956.5696
66.6900 913.1452
66.7000 979.6232
66.7100 1035.6440
66.7200 872.7042
66.7300 724.5900
66.7400 748.3218
66.7500 940.2460
66.7600 970.4680
66.7700 905.6880
66.7800 976.5996
66.7900 758.6144
66.8000 807.2476
66.8100 995.4826
66.8200 880.3952
66.8300 851.9084
66.8400 866.3726
66.8500 868.6730
66.8600 995.7628
66.8700 764.4778
66.8800 939.6356
66.8900 697.9210
66.9000 835.7386
66.9100 943.0198
66.9200 785.6340
66.9300 1160.0832
66.9400 1344.0540
66.9500 1045.9914
66.9600 1110.9960
66.9700 1089.4182
66.9800 1016.0738
66.9900 1109.2200
67.0000 898.6990
67.0100 934.8092
67.0200 1246.7760
67.0300 868.6408
67.0400 917.7774
67.0500 941.5356
67.0600 898.6830
67.0700 866.4302
67.0800 1005.2668
67.0900 1134.7072
67.1000 785.6748
67.1100 991.7932
67.1200 988.6280
67.1300 994.4408
67.1400 901.7898
67.1500 670.0908
67.1600 666.3546
67.1700 936.6886
67.1800 963.2908
67.1900 1031.3868
67.2000 982.5654
67.2100 769.5632
67.2200 968.9518
67.2300 825.8126
67.2400 832.8540
67.2500 942.4672
67.2600 702.5482
67.2700 618.3128
67.2800 907.7106
67.2900 659.5758
67.3000 681.8648
67.3100 742.7626
67.3200 794.7520
67.3300 659.1478
67.3400 822.3418
67.3500 587.9188
67.3600 408.5646
67.3700 706.0444
67.3800 727.5112
67.3900 872.5362
67.4000 815.1118
67.4100 773.5986
67.4200 626.2776
67.4300 634.4588
67.4400 559.1698
67.4500 680.2844
67.4600 442.1594
67.4700 729.2018
67.4800 873.0110
67.4900 751.3594
67.5000 1014.1218
67.5100 716.7684
67.5200 669.0414
67.5300 666.1226
67.5400 660.1290
67.5500 778.4400
67.5600 643.8160
67.5700 664.2936
67.5800 1014.1420
67.5900 824.4590
67.6000 634.4646
67.6100 515.7034
67.6200 956.4222
67.6300 850.5060
67.6400 708.9524
67.6500 506.5096
67.6600 856.0282
67.6700 776.5920
67.6800 728.8186
67.6900 779.1242
67.7000 583.2500
67.7100 690.0388
67.7200 619.5210
67.7300 618.0920
67.7400 700.8668
67.7500 585.2412
67.7600 771.5864
67.7700 609.0312
67.7800 692.6864
67.7900 746.2356
67.8000 665.5166
67.8100 803.1748
67.8200 639.6086
67.8300 807.3994
67.8400 782.3068
67.8500 845.3824
67.8600 414.3448
67.8700 789.0080
67.8800 760.2402
67.8900 839.4096
67.9000 636.8240
67.9100 636.8012
67.9200 519.4362
67.9300 667.1092
67.9400 626.9770
67.9500 716.2350
67.9600 526.3182
67.9700 621.3790
67.9800 577.8278
67.9900 769.4820
68.0000 685.6076
68.0100 766.5500
68.0200 755.5506
68.0300 606.3800
68.0400 867.2298
68.0500 848.0408
68.0600 807.7376
68.0700 695.9016
68.0800 701.1838
68.0900 644.1040
68.1000 750.3200
68.1100 834.2224
68.1200 574.4128
68.1300 561.0346
68.1400 627.9304
68.1500 788.2520
68.1600 751.8224
68.1700 612.4578
68.1800 523.1046
68.1900 714.6858
68.2000 685.3360
68.2100 551.7802
68.2200 648.7928
68.2300 513.3296
68.2400 619.2910
68.2500 415.8640
68.2600 483.6428
68.2700 675.0016
68.2800 751.0466
68.2900 531.8114
68.3000 660.9622
68.3100 448.9998
68.3200 499.1790
68.3300 634.2602
68.3400 750.6554
68.3500 697.0522
68.3600 628.6956
68.3700 519.9444
68.3800 568.2764
68.3900 554.5334
68.4000 630.3052
68.4100 465.8440
68.4200 576.9354
68.4300 524.2830
68.4400 746.9030
68.4500 773.1062
68.4600 678.4666
68.4700 836.7866
68.4800 733.5914
68.4900 872.3420
68.5000 677.3220
68.5100 589.6982
68.5200 591.4088
68.5300 754.8956
68.5400 495.2416
68.5500 571.8014
68.5600 747.5534
68.5700 565.0800
68.5800 672.9334
68.5900 699.2394
68.6000 831.0742
68.6100 767.1024
68.6200 513.4018
68.6300 722.0202
68.6400 691.9020
68.6500 803.0086
68.6600 829.4330
68.6700 756.5456
68.6800 779.0900
68.6900 988.0772
68.7000 689.9188
68.7100 912.1700
68.7200 778.1210
68.7300 813.0988
68.7400 869.3940
68.7500 705.2862
68.7600 675.4148
68.7700 669.9838
68.7800 851.5948
68.7900 1145.1424
68.8000 960.6568
68.8100 935.2068
68.8200 1112.1622
68.8300 898.3764
68.8400 850.3298
68.8500 1134.5030
68.8600 1050.4028
68.8700 1159.8310
68.8800 1101.7890
68.8900 1162.8364
68.9000 951.0198
68.9100 853.9936
68.9200 768.6090
68.9300 1009.7210
68.9400 1004.8672
68.9500 1000.3576
68.9600 784.5994
68.9700 932.3990
68.9800 607.8500
68.9900 794.4826
69.0000 1016.1898
69.0100 1172.9558
69.0200 881.8950
69.0300 897.9550
69.0400 845.0462
69.0500 719.2682
69.0600 1076.6636
69.0700 1001.0476
69.0800 594.4874
69.0900 703.4312
69.1000 868.4840
69.1100 683.5182
69.1200 738.8918
69.1300 826.4294
69.1400 914.3638
69.1500 803.2940
69.1600 567.7420
69.1700 579.9366
69.1800 734.2794
69.1900 693.3016
69.2000 810.0848
69.2100 835.6352
69.2200 774.0592
69.2300 632.7250
69.2400 664.0486
69.2500 681.4326
69.2600 783.5460
69.2700 504.1264
69.2800 686.5364
69.2900 850.9462
69.3000 523.3860
69.3100 435.5792
69.3200 665.3376
69.3300 556.0820
69.3400 727.9040
69.3500 823.0538
69.3600 620.6010
69.3700 663.4884
69.3800 494.3508
69.3900 553.1464
69.4000 840.3552
69.4100 544.1522
69.4200 773.4598
69.4300 461.9578
69.4400 673.2026
69.4500 673.3732
69.4600 626.9798
69.4700 844.9810
69.4800 726.5598
69.4900 861.6360
69.5000 728.6822
69.5100 473.8100
69.5200 541.9164
69.5300 526.1142
69.5400 541.1616
69.5500 514.7328
69.5600 522.3012
69.5700 448.5356
69.5800 606.8440
69.5900 700.9418
69.6000 669.9166
69.6100 550.7158
69.6200 651.8404
69.6300 702.7742
69.6400 499.3426
69.6500 724.3382
69.6600 651.4766
69.6700 661.2390
69.6800 628.1954
69.6900 547.2632
69.7000 657.6302
69.7100 662.3454
69.7200 584.8646
69.7300 654.8528
69.7400 358.5348
69.7500 596.2956
69.7600 464.9932
69.7700 684.0744
69.7800 564.1692
69.7900 579.3766
69.8000 563.9802
69.8100 636.5408
69.8200 547.5236
69.8300 718.0162
69.8400 608.6934
69.8500 505.7368
69.8600 495.3490
69.8700 527.1174
69.8800 628.0316
69.8900 730.1512
69.9000 689.4358
69.9100 664.0242
69.9200 681.4044
69.9300 742.7394
69.9400 714.7560
69.9500 535.0020
69.9600 544.6550
69.9700 313.8010
69.9800 579.6630
69.9900 679.6930
70.0000 461.4294
70.0100 615.0634
70.0200 617.6638
70.0300 626.0264
70.0400 625.0808
70.0500 647.8582
70.0600 576.9118
70.0700 469.4162
70.0800 567.0416
70.0900 655.4796
70.1000 782.3794
70.1100 656.2504
70.1200 584.0958
70.1300 610.1062
70.1400 700.9108
70.1500 559.6996
70.1600 467.4778
70.1700 473.5080
70.1800 454.1174
70.1900 655.1964
70.2000 579.8954
70.2100 442.4654
70.2200 643.4968
70.2300 618.5554
70.2400 599.0630
70.2500 487.2328
70.2600 515.2754
70.2700 515.2432
70.2800 624.2778
70.2900 475.7062
70.3000 516.2282
70.3100 769.3962
70.3200 477.4608
70.3300 532.2544
70.3400 523.7644
70.3500 650.9760
70.3600 567.0518
70.3700 601.8972
70.3800 637.6548
70.3900 585.9522
70.4000 582.9054
70.4100 452.0102
70.4200 632.9570
70.4300 516.9786
70.4400 742.1930
70.4500 476.7860
70.4600 623.6556
70.4700 481.4830
70.4800 614.2060
70.4900 550.7184
70.5000 504.2142
70.5100 591.3118
70.5200 424.4698
70.5300 489.6490
70.5400 433.9804
70.5500 736.7882
70.5600 499.5362
70.5700 427.0756
70.5800 622.4038
70.5900 717.1758
70.6000 576.7814
70.6100 690.1098
70.6200 724.1508
70.6300 505.2642
70.6400 629.8262
70.6500 498.9432
70.6600 607.3284
70.6700 622.0692
70.6800 949.6860
70.6900 650.8708
70.7000 616.4202
70.7100 570.7458
70.7200 713.1604
70.7300 832.6692
70.7400 672.7556
70.7500 859.7652
70.7600 525.4456
70.7700 485.8138
70.7800 741.5604
70.7900 431.6110
70.8000 656.7488
70.8100 675.1074
70.8200 594.1392
70.8300 539.3912
70.8400 654.0470
70.8500 675.3388
70.8600 540.2112
70.8700 592.5412
70.8800 459.8374
70.8900 621.1532
70.9000 567.3268
70.9100 598.5064
70.9200 536.3322
70.9300 420.8446
70.9400 516.5122
70.9500 721.9226
70.9600 579.2744
70.9700 397.6906
70.9800 430.3370
70.9900 533.2918
71.0000 523.7718
71.0100 641.8542
71.0200 569.8518
71.0300 460.8208
71.0400 535.5740
71.0500 599.6992
71.0600 633.2276
71.0700 626.6696
71.0800 554.6856
71.0900 788.0630
71.1000 744.8882
71.1100 624.3550
71.1200 563.0344
71.1300 511.7118
71.1400 483.1706
71.1500 542.8422
71.1600 498.5760
71.1700 465.1644
71.1800 521.7130
71.1900 708.3752
71.2000 560.8136
71.2100 641.6996
71.2200 518.2152
71.2300 601.4834
71.2400 523.3096
71.2500 714.4306
71.2600 633.9446
71.2700 569.9782
71.2800 576.4708
71.2900 465.6690
71.3000 675.3850
71.3100 631.2154
71.3200 563.7606
71.3300 562.7174
71.3400 522.2712
71.3500 591.0364
71.3600 658.6054
71.3700 563.2278
71.3800 694.8944
71.3900 798.1506
71.4000 621.8344
71.4100 525.3624
71.4200 653.2788
71.4300 568.4000
71.4400 700.0240
71.4500 496.1744
71.4600 715.2338
71.4700 658.1502
71.4800 566.5370
71.4900 742.5090
71.5000 718.4052
71.5100 569.7874
71.5200 605.3110
71.5300 691.5712
71.5400 468.6476
71.5500 507.2268
71.5600 482.1624
71.5700 599.8772
71.5800 427.9588
71.5900 458.8448
71.6000 531.8602
71.6100 490.7324
71.6200 695.6514
71.6300 477.5866
71.6400 556.0244
71.6500 433.9542
71.6600 485.4618
71.6700 421.2456
71.6800 497.7786
71.6900 591.4150
71.7000 585.5606
71.7100 584.0338
71.7200 437.9726
71.7300 519.3968
71.7400 570.7402
71.7500 516.4300
71.7600 564.2406
71.7700 523.8218
71.7800 524.3722
71.7900 438.3712
71.8000 614.0708
71.8100 697.9624
71.8200 730.2668
71.8300 478.0004
71.8400 731.0248
71.8500 642.7692
71.8600 457.3836
71.8700 529.8406
71.8800 495.0436
71.8900 451.1518
71.9000 700.3716
71.9100 691.8524
71.9200 407.0458
71.9300 627.0644
71.9400 491.5282
71.9500 649.3590
71.9600 458.5416
71.9700 361.4970
71.9800 578.3726
71.9900 669.7006
72.0000 588.6322
72.0100 472.5978
72.0200 441.2750
72.0300 579.8768
72.0400 674.2092
72.0500 465.7128
72.0600 488.9618
72.0700 646.3748
72.0800 556.3250
72.0900 560.8826
72.1000 812.1938
72.1100 763.1960
72.1200 621.6936
72.1300 618.2228
72.1400 359.3298
72.1500 457.9316
72.1600 521.0748
72.1700 477.4518
72.1800 589.4990
72.1900 569.4800
72.2000 496.2026
72.2100 532.9244
72.2200 685.4508
72.2300 563.1718
72.2400 468.4008
72.2500 497.3098
72.2600 308.0238
72.2700 556.7570
72.2800 476.1750
72.2900 675.3032
72.3000 346.4752
72.3100 672.1520
72.3200 666.8110
72.3300 395.9904
72.3400 679.3528
72.3500 715.3686
72.3600 581.9246
72.3700 598.7586
72.3800 653.0566
72.3900 648.8564
72.4000 477.3270
72.4100 579.4274
72.4200 618.2454
72.4300 805.6386
72.4400 460.9958
72.4500 506.9168
72.4600 639.9738
72.4700 559.5338
72.4800 527.7994
72.4900 559.0394
72.5000 517.7764
72.5100 612.9168
72.5200 588.6028
72.5300 470.1206
72.5400 296.1880
72.5500 377.1300
72.5600 455.2230
72.5700 483.2426
72.5800 519.8002
72.5900 516.1028
72.6000 524.2576
72.6100 616.2578
72.6200 517.6068
72.6300 541.0798
72.6400 604.6160
72.6500 527.9978
72.6600 729.1936
72.6700 712.9426
72.6800 618.1198
72.6900 630.9530
72.7000 490.0294
72.7100 581.5870
72.7200 655.9222
72.7300 589.0388
72.7400 531.3146
72.7500 786.0466
72.7600 556.0280
72.7700 548.6556
72.7800 608.5268
72.7900 518.7220
72.8000 640.3544
72.8100 481.9944
72.8200 578.4396
72.8300 381.5868
72.8400 422.8782
72.8500 197.4200
72.8600 319.6976
72.8700 455.5872
72.8800 553.6060
72.8900 375.4314
72.9000 376.7268
72.9100 576.7964
72.9200 413.0770
72.9300 455.4256
72.9400 627.1264
72.9500 595.5550
72.9600 571.9852
72.9700 542.0750
72.9800 611.6674
72.9900 616.0270
73.0000 471.2600
73.0100 529.2708
73.0200 577.2106
73.0300 767.0048
73.0400 597.3362
73.0500 567.6154
73.0600 426.6988
73.0700 520.4946
73.0800 609.0644
73.0900 434.0428
73.1000 509.3680
73.1100 572.7106
73.1200 783.4814
73.1300 568.5302
73.1400 506.4382
73.1500 605.3644
73.1600 526.3820
73.1700 464.5800
73.1800 592.4070
73.1900 551.5694
73.2000 585.6218
73.2100 391.7884
73.2200 559.5904
73.2300 452.0908
73.2400 500.4504
73.2500 613.8236
73.2600 538.3388
73.2700 473.6444
73.2800 646.7878
73.2900 724.1354
73.3000 416.2050
73.3100 671.9890
73.3200 365.2588
73.3300 333.1552
73.3400 574.5556
73.3500 496.7936
73.3600 438.8160
73.3700 701.9742
73.3800 517.6088
73.3900 495.7078
73.4000 463.9174
73.4100 531.7644
73.4200 427.1478
73.4300 536.4860
73.4400 455.3754
73.4500 518.2388
73.4600 682.8946
73.4700 514.3970
73.4800 621.4874
73.4900 812.7352
73.5000 571.5898
73.5100 559.0864
73.5200 545.3616
73.5300 542.1798
73.5400 506.9452
73.5500 521.4488
73.5600 424.6638
73.5700 448.4206
73.5800 393.4486
73.5900 691.0644
73.6000 455.5146
73.6100 599.1312
73.6200 498.8502
73.6300 695.2746
73.6400 756.2010
73.6500 634.0572
73.6600 564.4904
73.6700 417.3310
73.6800 384.1968
73.6900 533.8534
73.7000 554.2366
73.7100 590.8336
73.7200 647.4544
73.7300 599.1734
73.7400 570.8094
73.7500 611.4842
73.7600 598.7564
73.7700 828.1298
73.7800 503.8816
73.7900 536.9482
73.8000 660.2318
73.8100 495.2144
73.8200 634.3522
73.8300 570.0688
73.8400 694.3232
73.8500 392.9484
73.8600 586.8508
73.8700 635.3170
73.8800 412.0862
73.8900 572.3656
73.9000 744.9376
73.9100 564.8942
73.9200 752.6346
73.9300 560.6882
73.9400 534.5620
73.9500 513.4574
73.9600 606.7242
73.9700 599.0534
73.9800 576.8776
73.9900 679.0814
74.0000 643.3590
74.0100 643.6168
74.0200 397.8640
74.0300 605.7264
74.0400 754.9592
74.0500 474.7146
74.0600 652.7402
74.0700 617.7848
74.0800 518.3350
74.0900 604.4288
74.1000 625.1160
74.1100 819.0748
74.1200 504.1748
74.1300 744.1636
74.1400 515.3860
74.1500 450.8290
74.1600 633.3394
74.1700 629.6848
74.1800 329.0298
74.1900 816.5472
74.2000 596.7848
74.2100 500.4128
74.2200 844.9780
74.2300 542.2464
74.2400 798.8652
74.2500 777.4084
74.2600 867.4578
74.2700 653.8492
74.2800 587.7706
74.2900 636.3694
74.3000 746.1722
74.3100 672.9894
74.3200 721.7100
74.3300 726.4988
74.3400 727.2806
74.3500 643.1138
74.3600 750.1278
74.3700 779.4494
74.3800 795.1914
74.3900 621.7334
74.4000 508.6410
74.4100 543.2306
74.4200 535.9478
74.4300 692.7322
74.4400 470.1962
74.4500 555.6502
74.4600 651.4168
74.4700 515.6174
74.4800 791.8048
74.4900 898.4536
74.5000 722.7608
74.5100 663.1814
74.5200 624.8292
74.5300 938.5966
74.5400 626.3692
74.5500 581.9432
74.5600 797.9048
74.5700 714.2806
74.5800 712.6266
74.5900 673.7070
74.6000 971.6282
74.6100 751.5638
74.6200 797.0272
74.6300 574.6416
74.6400 564.7342
74.6500 604.8220
74.6600 693.1458
74.6700 709.8948
74.6800 686.0634
74.6900 424.8306
74.7000 594.3918
74.7100 630.1154
74.7200 651.9876
74.7300 757.9758
74.7400 612.2762
74.7500 651.8332
74.7600 750.5156
74.7700 577.4704
74.7800 535.0770
74.7900 550.3666
74.8000 595.5314
74.8100 766.1344
74.8200 830.1884
74.8300 739.9700
74.8400 686.9166
74.8500 459.4966
74.8600 601.5214
74.8700 624.3970
74.8800 558.3372
74.8900 344.8348
74.9000 699.1984
74.9100 732.6736
74.9200 558.3964
74.9300 500.0370
74.9400 613.2798
74.9500 479.2694
74.9600 420.7110
74.9700 687.5614
74.9800 533.8582
74.9900 422.5384
75.0000 531.7214
75.0100 440.1694
75.0200 697.2320
75.0300 544.9956
75.0400 600.5164
75.0500 497.3954
75.0600 456.3610
75.0700 614.2658
75.0800 581.7736
75.0900 486.1916
75.1000 673.8216
75.1100 576.2730
75.1200 457.3126
75.1300 649.1200
75.1400 489.5336
75.1500 449.5230
75.1600 577.8718
75.1700 530.6114
75.1800 550.2506
75.1900 649.3074
75.2000 561.2480
75.2100 534.6694
75.2200 707.7726
75.2300 565.3304
75.2400 381.4386
75.2500 515.1716
75.2600 636.0016
75.2700 410.4766
75.2800 538.4032
75.2900 642.6270
75.3000 408.6570
75.3100 546.0806
75.3200 544.9326
75.3300 527.1506
75.3400 494.6026
75.3500 408.8800
75.3600 571.7348
75.3700 457.1958
75.3800 548.7928
75.3900 351.1456
75.4000 450.8658
75.4100 426.3322
75.4200 595.9776
75.4300 444.6088
75.4400 569.7876
75.4500 606.4030
75.4600 609.5990
75.4700 342.0000
75.4800 417.2940
75.4900 481.5938
75.5000 584.7526
75.5100 401.5048
75.5200 451.2312
75.5300 410.6048
75.5400 605.1554
75.5500 444.8676
75.5600 424.6898
75.5700 611.1496
75.5800 575.2028
75.5900 559.1946
75.6000 717.6848
75.6100 664.8322
75.6200 607.5298
75.6300 474.6490
75.6400 425.7148
75.6500 694.3648
75.6600 318.6932
75.6700 450.2224
75.6800 503.0896
75.6900 530.1768
75.7000 567.9380
75.7100 611.4520
75.7200 725.7416
75.7300 561.6994
75.7400 500.0340
75.7500 618.2992
75.7600 707.3062
75.7700 444.1334
75.7800 629.1346
75.7900 482.2700
75.8000 554.4640
75.8100 636.4938
75.8200 724.9120
75.8300 629.9030
75.8400 337.4264
75.8500 716.3078
75.8600 509.9844
75.8700 387.8054
75.8800 601.1148
75.8900 533.8808
75.9000 677.1696
75.9100 681.0418
75.9200 642.5812
75.9300 403.7532
75.9400 560.5508
75.9500 594.2852
75.9600 595.4080
75.9700 565.0246
75.9800 634.7348
75.9900 420.2028
76.0000 491.3920
76.0100 629.3224
76.0200 547.9822
76.0300 577.9300
76.0400 670.9354
76.0500 613.6966
76.0600 713.8686
76.0700 629.1004
76.0800 564.1444
76.0900 529.1262
76.1000 677.5172
76.1100 618.9944
76.1200 546.0414
76.1300 617.5778
76.1400 589.9664
76.1500 676.0494
76.1600 594.3412
76.1700 829.4206
76.1800 651.5552
76.1900 388.2176
76.2000 395.1816
76.2100 590.7256
76.2200 534.1492
76.2300 617.5296
76.2400 615.7192
76.2500 707.1872
76.2600 728.5028
76.2700 603.3084
76.2800 511.2934
76.2900 414.6020
76.3000 838.9042
76.3100 626.4524
76.3200 507.1762
76.3300 618.4794
76.3400 731.8328
76.3500 508.9074
76.3600 790.9930
76.3700 588.5292
76.3800 503.6164
76.3900 548.9924
76.4000 663.5848
76.4100 745.9146
76.4200 649.2346
76.4300 571.2802
76.4400 510.2032
76.4500 564.9426
76.4600 533.4272
76.4700 690.9428
76.4800 621.9948
76.4900 583.8878
76.5000 554.9820
76.5100 355.6728
76.5200 624.4548
76.5300 462.1948
76.5400 536.5600
76.5500 569.2420
76.5600 455.4212
76.5700 427.9402
76.5800 467.4880
76.5900 532.9900
76.6000 519.9078
76.6100 539.5846
76.6200 335.1796
76.6300 692.9262
76.6400 436.3306
76.6500 398.1016
76.6600 521.6032
76.6700 529.9178
76.6800 454.1994
76.6900 510.9572
76.7000 548.3684
76.7100 573.9892
76.7200 524.9828
76.7300 624.5940
76.7400 490.2634
76.7500 437.3178
76.7600 498.2808
76.7700 404.4180
76.7800 615.5582
76.7900 807.1630
76.8000 732.6562
76.8100 550.0996
76.8200 573.9210
76.8300 519.5926
76.8400 745.5824
76.8500 528.2310
76.8600 672.5764
76.8700 696.8062
76.8800 510.1206
76.8900 554.2256
76.9000 480.0606
76.9100 325.5938
76.9200 457.1660
76.9300 461.1618
76.9400 359.4482
76.9500 376.3660
76.9600 460.0460
76.9700 390.0260
76.9800 372.9762
76.9900 429.5672
77.0000 511.5760
77.0100 483.7614
77.0200 403.7988
77.0300 492.5058
77.0400 520.1914
77.0500 618.0648
77.0600 496.3220
77.0700 333.9050
77.0800 509.5678
77.0900 576.4438
77.1000 769.1852
77.1100 518.8900
77.1200 639.7452
77.1300 624.3714
77.1400 654.0606
77.1500 636.6034
77.1600 668.8884
77.1700 427.0758
77.1800 459.8110
77.1900 487.1038
77.2000 499.2688
77.2100 518.6882
77.2200 456.9008
77.2300 381.7834
77.2400 566.5176
77.2500 416.6726
77.2600 672.3698
77.2700 567.7140
77.2800 478.2498
77.2900 636.6382
77.3000 828.6452
77.3100 522.7414
77.3200 644.4850
77.3300 531.2126
77.3400 504.5124
77.3500 443.2836
77.3600 459.8760
77.3700 425.5160
77.3800 430.5356
77.3900 448.4272
77.4000 731.5328
77.4100 400.3818
77.4200 405.1960
77.4300 425.6298
77.4400 512.5496
77.4500 528.1496
77.4600 612.5734
77.4700 494.9646
77.4800 598.2916
77.4900 487.3126
77.5000 373.5472
77.5100 559.7384
77.5200 360.6850
77.5300 608.1718
77.5400 480.3868
77.5500 559.9304
77.5600 491.1396
77.5700 564.3700
77.5800 490.1722
77.5900 532.4450
77.6000 470.9200
77.6100 422.6974
77.6200 526.2922
77.6300 570.1954
77.6400 532.9774
77.6500 458.2410
77.6600 409.6386
77.6700 426.3544
77.6800 545.7714
77.6900 593.7158
77.7000 555.1944
77.7100 598.2390
77.7200 702.2868
77.7300 541.2186
77.7400 544.2974
77.7500 503.5494
77.7600 491.4068
77.7700 387.7326
77.7800 432.7808
77.7900 418.7600
77.8000 562.8722
77.8100 520.8786
77.8200 507.0484
77.8300 556.1424
77.8400 413.0632
77.8500 298.1382
77.8600 519.5034
77.8700 550.6160
77.8800 486.6754
77.8900 538.8764
77.9000 546.2422
77.9100 678.2610
77.9200 658.5432
77.9300 569.9966
77.9400 626.1982
77.9500 509.9494
77.9600 516.0996
77.9700 722.6594
77.9800 514.9090
77.9900 569.7278
78.0000 640.2186
78.0100 762.6028
78.0200 705.0234
78.0300 635.1654
78.0400 715.0024
78.0500 474.9130
78.0600 519.4644
78.0700 618.7624
78.0800 581.3368
78.0900 501.5428
78.1000 331.9294
78.1100 648.9290
78.1200 449.4344
78.1300 827.3662
78.1400 576.7576
78.1500 413.6838
78.1600 470.4442
78.1700 406.6326
78.1800 355.5694
78.1900 442.3712
78.2000 497.7074
78.2100 491.2894
78.2200 566.8550
78.2300 491.7558
78.2400 319.3038
78.2500 366.6294
78.2600 472.4294
78.2700 582.8920
78.2800 569.9564
78.2900 631.9798
78.3000 464.7818
78.3100 645.6042
78.3200 532.6370
78.3300 580.3148
78.3400 522.9662
78.3500 480.0054
78.3600 547.2408
78.3700 632.5136
78.3800 400.3458
78.3900 328.2150
78.4000 421.5608
78.4100 578.0196
78.4200 390.1004
78.4300 480.1604
78.4400 434.3592
78.4500 671.0056
78.4600 578.7406
78.4700 527.2052
78.4800 529.6050
78.4900 577.7056
78.5000 673.3046
78.5100 544.4396
78.5200 552.2708
78.5300 682.2520
78.5400 424.9990
78.5500 489.5772
78.5600 635.0256
78.5700 380.0210
78.5800 398.4030
78.5900 498.5404
78.6000 466.7090
78.6100 514.1688
78.6200 563.2010
78.6300 563.8834
78.6400 302.4364
78.6500 536.3924
78.6600 349.3158
78.6700 536.9400
78.6800 405.2126
78.6900 500.7882
78.7000 550.4928
78.7100 398.7996
78.7200 476.3096
78.7300 555.2416
78.7400 517.1766
78.7500 426.7596
78.7600 470.3048
78.7700 510.3138
78.7800 489.9374
78.7900 395.3220
78.8000 343.3838
78.8100 569.5528
78.8200 605.4872
78.8300 488.8772
78.8400 452.8806
78.8500 330.1184
78.8600 333.1610
78.8700 435.6728
78.8800 451.2562
78.8900 464.5390
78.9000 579.5950
78.9100 628.0750
78.9200 543.2048
78.9300 674.3190
78.9400 539.7194
78.9500 540.4964
78.9600 496.3762
78.9700 475.1658
78.9800 586.7036
78.9900 544.5678
79.0000 603.5120
79.0100 494.1094
79.0200 575.9854
79.0300 555.1638
79.0400 303.1084
79.0500 470.5170
79.0600 518.3964
79.0700 420.8660
79.0800 328.6848
79.0900 562.2038
79.1000 465.0502
79.1100 415.8548
79.1200 585.1036
79.1300 457.0948
79.1400 456.2010
79.1500 511.7386
79.1600 586.4598
79.1700 405.8580
79.1800 639.6964
79.1900 623.7802
79.2000 462.9382
79.2100 446.3512
79.2200 640.5304
79.2300 342.2960
79.2400 532.6632
79.2500 480.1768
79.2600 563.9388
79.2700 634.5186
79.2800 551.2166
79.2900 429.8234
79.3000 252.0170
79.3100 725.3520
79.3200 405.8272
79.3300 425.6520
79.3400 659.6862
79.3500 548.3968
79.3600 432.9204
79.3700 355.2378
79.3800 498.0428
79.3900 519.9590
79.4000 481.0232
79.4100 618.6078
79.4200 352.1872
79.4300 582.2036
79.4400 404.0630
79.4500 410.5118
79.4600 431.8756
79.4700 453.2764
79.4800 665.8110
79.4900 537.4394
79.5000 393.3404
79.5100 618.6514
79.5200 532.2890
79.5300 545.6036
79.5400 367.4934
79.5500 540.2264
79.5600 314.4740
79.5700 352.5700
79.5800 504.7810
79.5900 593.1606
79.6000 438.1992
79.6100 543.6642
79.6200 530.2834
79.6300 673.0082
79.6400 387.6326
79.6500 460.1872
79.6600 446.2950
79.6700 470.2634
79.6800 441.6026
79.6900 283.2726
79.7000 332.4972
79.7100 526.6816
79.7200 620.0660
79.7300 447.6830
79.7400 429.7596
79.7500 451.4718
79.7600 391.9562
79.7700 529.0600
79.7800 277.2856
79.7900 425.7310
79.8000 526.6414
79.8100 397.7988
79.8200 730.8122
79.8300 515.8416
79.8400 455.5356
79.8500 417.0490
79.8600 626.3584
79.8700 417.3214
79.8800 591.2400
79.8900 622.1694
79.9000 350.7748
79.9100 551.6920
79.9200 697.5430
79.9300 554.1404
79.9400 378.7844
79.9500 443.7596
79.9600 524.7244
79.9700 394.8208
79.9800 502.6550
79.9900 608.1450
80.0000 517.3740
80.0100 525.8318
80.0200 470.8350
80.0300 422.2202
80.0400 404.2172
80.0500 546.5930
80.0600 430.0902
80.0700 334.1364
80.0800 431.3300
80.0900 425.7240
80.1000 459.0072
80.1100 534.6626
80.1200 474.6902
80.1300 433.5818
80.1400 560.2238
80.1500 409.8088
80.1600 488.7904
80.1700 571.9318
80.1800 529.7954
80.1900 671.9940
80.2000 334.8910
80.2100 494.7764
80.2200 589.7742
80.2300 479.2886
80.2400 555.9746
80.2500 389.5484
80.2600 397.5208
80.2700 368.8738
80.2800 445.1646
80.2900 472.4294
80.3000 393.8792
80.3100 260.1324
80.3200 558.5268
80.3300 629.9166
80.3400 299.6824
80.3500 420.5766
80.3600 485.6204
80.3700 694.8956
80.3800 497.4364
80.3900 445.7446
80.4000 458.5088
80.4100 231.9986
80.4200 335.3592
80.4300 681.3490
80.4400 394.3268
80.4500 360.2054
80.4600 462.6978
80.4700 432.4956
80.4800 386.4544
80.4900 766.8054
80.5000 459.1068
80.5100 593.0170
80.5200 413.0822
80.5300 423.5358
80.5400 537.1164
80.5500 385.7982
80.5600 460.7376
80.5700 535.3882
80.5800 434.3514
80.5900 486.3762
80.6000 438.0650
80.6100 395.6504
80.6200 485.9022
80.6300 586.4438
80.6400 529.5998
80.6500 576.1268
80.6600 513.7588
80.6700 414.4662
80.6800 608.9158
80.6900 431.6306
80.7000 467.5592
80.7100 307.8684
80.7200 477.1726
80.7300 416.2356
80.7400 419.3886
80.7500 327.8266
80.7600 404.4478
80.7700 489.6386
80.7800 477.3902
80.7900 475.9450
80.8000 417.6676
80.8100 428.8488
80.8200 578.9428
80.8300 585.5910
80.8400 447.5070
80.8500 420.9216
80.8600 601.4926
80.8700 601.5824
80.8800 387.8088
80.8900 306.7790
80.9000 291.6492
80.9100 495.0566
80.9200 658.6534
80.9300 406.1010
80.9400 445.7752
80.9500 433.8516
80.9600 556.6734
80.9700 476.7362
80.9800 496.3354
80.9900 415.8044
81.0000 595.1592
81.0100 427.5694
81.0200 362.1610
81.0300 413.0292
81.0400 272.7494
81.0500 467.5634
81.0600 536.2388
81.0700 554.4488
81.0800 477.3198
81.0900 403.4596
81.1000 392.8194
81.1100 577.0902
81.1200 404.4228
81.1300 402.8812
81.1400 464.9036
81.1500 573.2748
81.1600 631.3782
81.1700 537.7090
81.1800 390.8882
81.1900 437.7386
81.2000 546.3314
81.2100 410.2832
81.2200 487.3228
81.2300 503.8230
81.2400 647.0758
81.2500 513.1412
81.2600 423.0944
81.2700 579.5008
81.2800 323.5480
81.2900 478.0498
81.3000 415.5702
81.3100 568.4226
81.3200 598.4410
81.3300 559.0228
81.3400 351.1210
81.3500 410.4206
81.3600 539.0436
81.3700 306.3624
81.3800 449.7712
81.3900 371.8116
81.4000 361.7090
81.4100 505.0582
81.4200 597.1648
81.4300 455.1924
81.4400 462.3242
81.4500 387.7554
81.4600 539.4358
81.4700 466.4962
81.4800 471.3158
81.4900 574.0922
81.5000 430.6096
81.5100 528.0810
81.5200 518.5992
81.5300 388.6468
81.5400 379.0948
81.5500 397.5976
81.5600 487.9734
81.5700 386.1662
81.5800 587.7198
81.5900 454.9578
81.6000 571.7594
81.6100 497.2042
81.6200 550.5720
81.6300 466.3276
81.6400 528.0492
81.6500 327.5710
81.6600 206.8960
81.6700 422.9070
81.6800 692.2186
81.6900 448.8562
81.7000 449.5536
81.7100 516.2962
81.7200 427.4976
81.7300 601.1342
81.7400 398.4546
81.7500 347.6538
81.7600 408.0926
81.7700 527.7462
81.7800 506.6898
81.7900 292.8016
81.8000 373.1816
81.8100 504.8094
81.8200 288.4652
81.8300 531.0972
81.8400 524.7926
81.8500 519.2590
81.8600 491.5148
81.8700 530.5850
81.8800 467.1074
81.8900 501.0130
81.9000 459.3846
81.9100 552.6966
81.9200 434.8952
81.9300 347.8432
81.9400 470.0532
81.9500 542.8242
81.9600 391.0096
81.9700 287.3524
81.9800 374.8006
81.9900 389.6612
82.0000 427.9642
82.0100 483.7032
82.0200 392.8218
82.0300 641.1124
82.0400 563.5826
82.0500 497.8274
82.0600 383.7038
82.0700 483.6582
82.0800 488.7818
82.0900 542.8750
82.1000 436.1774
82.1100 487.4726
82.1200 344.4260
82.1300 435.0276
82.1400 463.5504
82.1500 562.8292
82.1600 603.9670
82.1700 527.6856
82.1800 480.2040
82.1900 493.6706
82.2000 420.3824
82.2100 496.3448
82.2200 396.3534
82.2300 468.9904
82.2400 322.9868
82.2500 333.7246
82.2600 441.7848
82.2700 594.4106
82.2800 353.5038
82.2900 382.3116
82.3000 530.4014
82.3100 361.5034
82.3200 488.8340
82.3300 343.7662
82.3400 530.5834
82.3500 375.6282
82.3600 384.3468
82.3700 377.8750
82.3800 389.4142
82.3900 422.3030
82.4000 373.9500
82.4100 442.7620
82.4200 463.9900
82.4300 353.5284
82.4400 576.8340
82.4500 537.2372
82.4600 421.7046
82.4700 432.0920
82.4800 572.6978
82.4900 495.5846
82.5000 577.1812
82.5100 500.3772
82.5200 521.6272
82.5300 682.2574
82.5400 513.6470
82.5500 416.6616
82.5600 599.1276
82.5700 578.3308
82.5800 651.4732
82.5900 435.0164
82.6000 372.1010
82.6100 303.7136
82.6200 592.6214
82.6300 462.3542
82.6400 480.2584
82.6500 393.5634
82.6600 450.7776
82.6700 491.9694
82.6800 410.2702
82.6900 502.0496
82.7000 606.6900
82.7100 688.6866
82.7200 433.1188
82.7300 404.8764
82.7400 383.4394
82.7500 430.9854
82.7600 428.2082
82.7700 519.7688
82.7800 516.6534
82.7900 312.9876
82.8000 451.0300
82.8100 360.0366
82.8200 378.0594
82.8300 405.8518
82.8400 477.9644
82.8500 306.6544
82.8600 318.0880
82.8700 382.8842
82.8800 477.8526
82.8900 318.5626
82.9000 357.6012
82.9100 593.2330
82.9200 533.0360
82.9300 333.3870
82.9400 488.7266
82.9500 533.6834
82.9600 521.8582
82.9700 342.9908
82.9800 370.0384
82.9900 320.2206
83.0000 417.4956
83.0100 458.0994
83.0200 480.6964
83.0300 504.9188
83.0400 467.9942
83.0500 477.1176
83.0600 632.3798
83.0700 581.6382
83.0800 297.9426
83.0900 430.5600
83.1000 477.3984
83.1100 273.1944
83.1200 589.9724
83.1300 463.2356
83.1400 507.6006
83.1500 545.2076
83.1600 336.3484
83.1700 468.4178
83.1800 300.3242
83.1900 365.8252
83.2000 581.6010
83.2100 670.9576
83.2200 534.0738
83.2300 486.2182
83.2400 502.4330
83.2500 474.4306
83.2600 493.2048
83.2700 504.6364
83.2800 518.3796
83.2900 334.0044
83.3000 460.7048
83.3100 400.5122
83.3200 556.0422
83.3300 457.1460
83.3400 450.8422
83.3500 567.9162
83.3600 659.1188
83.3700 521.0062
83.3800 420.9674
83.3900 390.8894
83.4000 446.3416
83.4100 389.7806
83.4200 435.6336
83.4300 373.1476
83.4400 539.3242
83.4500 716.5700
83.4600 402.9622
83.4700 336.9110
83.4800 363.2976
83.4900 478.0536
83.5000 522.3472
83.5100 472.3924
83.5200 416.8250
83.5300 578.6150
83.5400 538.3552
83.5500 506.0614
83.5600 444.0438
83.5700 490.2796
83.5800 601.6050
83.5900 392.4920
83.6000 486.6712
83.6100 342.8958
83.6200 212.4502
83.6300 426.2746
83.6400 455.1934
83.6500 593.8118
83.6600 361.7598
83.6700 560.9154
83.6800 295.1996
83.6900 442.0752
83.7000 565.8920
83.7100 334.0744
83.7200 189.4612
83.7300 449.4078
83.7400 466.2252
83.7500 298.3328
83.7600 429.6034
83.7700 293.0246
83.7800 354.9412
83.7900 340.1216
83.8000 442.1824
83.8100 310.4934
83.8200 477.1236
83.8300 623.4804
83.8400 313.1184
83.8500 412.9882
83.8600 205.4924
83.8700 450.0372
83.8800 365.7196
83.8900 414.3850
83.9000 323.4996
83.9100 495.3286
83.9200 538.0678
83.9300 429.8870
83.9400 429.2112
83.9500 454.8502
83.9600 434.0824
83.9700 451.8986
83.9800 389.7170
83.9900 508.0282
84.0000 412.4796
84.0100 239.0670
84.0200 450.2574
84.0300 463.3224
84.0400 418.3078
84.0500 359.6618
84.0600 224.2702
84.0700 568.9614
84.0800 452.5846
84.0900 441.2182
84.1000 381.7204
84.1100 471.9440
84.1200 455.4540
84.1300 507.7314
84.1400 403.6938
84.1500 449.1702
84.1600 532.9676
84.1700 491.0744
84.1800 409.0730
84.1900 457.1492
84.2000 300.4016
84.2100 408.6950
84.2200 409.5244
84.2300 308.4466
84.2400 330.8138
84.2500 400.0856
84.2600 434.9090
84.2700 307.1844
84.2800 337.0630
84.2900 509.9060
84.3000 544.8372
84.3100 548.5544
84.3200 353.8348
84.3300 462.8090
84.3400 311.8930
84.3500 354.9296
84.3600 501.0398
84.3700 433.2148
84.3800 434.3776
84.3900 470.8278
84.4000 182.4632
84.4100 359.0152
84.4200 406.5264
84.4300 150.8660
84.4400 585.7836
84.4500 546.2196
84.4600 434.2938
84.4700 309.8458
84.4800 311.5576
84.4900 365.9686
84.5000 392.3628
84.5100 426.2824
84.5200 410.8722
84.5300 494.9872
84.5400 490.0972
84.5500 539.3534
84.5600 320.7480
84.5700 481.1712
84.5800 556.6838
84.5900 451.8596
84.6000 264.4250
84.6100 449.7156
84.6200 374.9768
84.6300 303.6714
84.6400 431.4380
84.6500 408.8972
84.6600 440.9024
84.6700 480.8526
84.6800 341.8658
84.6900 522.3410
84.7000 414.4078
84.7100 374.5244
84.7200 408.0122
84.7300 416.8332
84.7400 370.3896
84.7500 474.2154
84.7600 410.9612
84.7700 599.8300
84.7800 401.6044
84.7900 484.0246
84.8000 421.5042
84.8100 521.5614
84.8200 535.0402
84.8300 393.9968
84.8400 472.1416
84.8500 418.1224
84.8600 442.0632
84.8700 429.2124
84.8800 421.4622
84.8900 294.1070
84.9000 524.2816
84.9100 476.7240
84.9200 346.0092
84.9300 551.0732
84.9400 384.1688
84.9500 602.1512
84.9600 331.9820
84.9700 503.1282
84.9800 467.7748
84.9900 433.4760
85.0000 342.7420
85.0100 384.8858
85.0200 475.6232
85.0300 247.6230
85.0400 505.5650
85.0500 473.4714
85.0600 481.7306
85.0700 608.5742
85.0800 437.4332
85.0900 492.3754
85.1000 666.5202
85.1100 497.5828
85.1200 502.6138
85.1300 300.1392
85.1400 481.2890
85.1500 388.9680
85.1600 650.4042
85.1700 432.5466
85.1800 421.5842
85.1900 345.0328
85.2000 539.9368
85.2100 519.2842
85.2200 536.2680
85.2300 512.4378
85.2400 676.9558
85.2500 598.4688
85.2600 478.0900
85.2700 517.6890
85.2800 561.9612
85.2900 598.3652
85.3000 360.1214
85.3100 495.1420
85.3200 453.6672
85.3300 453.6940
85.3400 317.5302
85.3500 466.5510
85.3600 357.3750
85.3700 501.3356
85.3800 391.6158
85.3900 332.6638
85.4000 422.8344
85.4100 512.1854
85.4200 422.3980
85.4300 475.4032
85.4400 257.6304
85.4500 467.8468
85.4600 529.1250
85.4700 500.6538
85.4800 597.2264
85.4900 606.5596
85.5000 432.8572
85.5100 463.9262
85.5200 315.1944
85.5300 473.9230
85.5400 494.3188
85.5500 377.9414
85.5600 353.7416
85.5700 348.1042
85.5800 513.2238
85.5900 379.7312
85.6000 251.8324
85.6100 402.1230
85.6200 458.5854
85.6300 460.4068
85.6400 355.2458
85.6500 621.1910
85.6600 439.0002
85.6700 368.1316
85.6800 419.0824
85.6900 403.6618
85.7000 416.1540
85.7100 473.8966
85.7200 282.3610
85.7300 388.5166
85.7400 415.5586
85.7500 468.4654
85.7600 512.0386
85.7700 401.2864
85.7800 208.0102
85.7900 334.7212
85.8000 370.7052
85.8100 512.5474
85.8200 544.6044
85.8300 355.7610
85.8400 335.2956
85.8500 408.6198
85.8600 618.8970
85.8700 584.1562
85.8800 363.6530
85.8900 412.9722
85.9000 443.9124
85.9100 332.5886
85.9200 293.3306
85.9300 518.7048
85.9400 407.3644
85.9500 381.0210
85.9600 330.3172
85.9700 449.2822
85.9800 198.7950
85.9900 461.6696
86.0000 576.5692
86.0100 565.7918
86.0200 433.6754
86.0300 261.1542
86.0400 213.1738
86.0500 370.4992
86.0600 339.8272
86.0700 299.2944
86.0800 458.0338
86.0900 353.9334
86.1000 526.3320
86.1100 499.4942
86.1200 526.5534
86.1300 418.0994
86.1400 452.8878
86.1500 369.4466
86.1600 352.1428
86.1700 378.6784
86.1800 430.9498
86.1900 328.3624
86.2000 390.4440
86.2100 346.9982
86.2200 409.1546
86.2300 414.7232
86.2400 371.4526
86.2500 395.2768
86.2600 444.4258
86.2700 117.0446
86.2800 507.1712
86.2900 409.5994
86.3000 355.5162
86.3100 461.6350
86.3200 380.2760
86.3300 417.3404
86.3400 463.7356
86.3500 331.7204
86.3600 208.0846
86.3700 403.9074
86.3800 306.3318
86.3900 279.0654
86.4000 190.4154
86.4100 322.5406
86.4200 207.8606
86.4300 471.7754
86.4400 383.3570
86.4500 312.6644
86.4600 343.1848
86.4700 263.7306
86.4800 390.7916
86.4900 442.9326
86.5000 503.1474
86.5100 472.8890
86.5200 351.5806
86.5300 280.4306
86.5400 467.5056
86.5500 465.8998
86.5600 270.8028
86.5700 499.4660
86.5800 426.3872
86.5900 400.7128
86.6000 574.3332
86.6100 467.4334
86.6200 584.7016
86.6300 518.3850
86.6400 464.4788
86.6500 298.8662
86.6600 547.6032
86.6700 343.5992
86.6800 321.5512
86.6900 366.0150
86.7000 299.7386
86.7100 561.9850
86.7200 308.0624
86.7300 252.7898
86.7400 261.7382
86.7500 453.3012
86.7600 360.1558
86.7700 354.2566
86.7800 414.7454
86.7900 378.5040
86.8000 502.5672
86.8100 452.2710
86.8200 414.5676
86.8300 378.7856
86.8400 397.9136
86.8500 282.3572
86.8600 254.8536
86.8700 275.7886
86.8800 404.8918
86.8900 423.2114
86.9000 400.5384
86.9100 382.6726
86.9200 512.8262
86.9300 350.8736
86.9400 316.4354
86.9500 238.8584
86.9600 332.6774
86.9700 546.7560
86.9800 442.7778
86.9900 374.7960
87.0000 355.3562
87.0100 425.5178
87.0200 379.4450
87.0300 296.8874
87.0400 319.7016
87.0500 257.8564
87.0600 395.9874
87.0700 246.0088
87.0800 465.2258
87.0900 376.9206
87.1000 357.8516
87.1100 348.0492
87.1200 402.5530
87.1300 347.9458
87.1400 451.7494
87.1500 584.0842
87.1600 540.2034
87.1700 421.1184
87.1800 357.8984
87.1900 397.0466
87.2000 351.4490
87.2100 522.1072
87.2200 466.2096
87.2300 337.8880
87.2400 241.2468
87.2500 287.3658
87.2600 395.9260
87.2700 440.1440
87.2800 434.7234
87.2900 311.5988
87.3000 330.6320
87.3100 473.9142
87.3200 341.7964
87.3300 373.4658
87.3400 428.1202
87.3500 499.2636
87.3600 496.9630
87.3700 452.7182
87.3800 419.7632
87.3900 216.7868
87.4000 295.7688
87.4100 451.1786
87.4200 303.1258
87.4300 211.8134
87.4400 351.1906
87.4500 304.6390
87.4600 467.1566
87.4700 672.7674
87.4800 425.7158
87.4900 462.8632
87.5000 223.5686
87.5100 390.0774
87.5200 396.8734
87.5300 270.6964
87.5400 400.9718
87.5500 469.5592
87.5600 501.2866
87.5700 364.4252
87.5800 468.4704
87.5900 398.9170
87.6000 476.2140
87.6100 348.5428
87.6200 374.7272
87.6300 387.8746
87.6400 468.7674
87.6500 395.8142
87.6600 547.5246
87.6700 407.0680
87.6800 295.0834
87.6900 411.6216
87.7000 225.7298
87.7100 325.7224
87.7200 253.9486
87.7300 373.0514
87.7400 332.6540
87.7500 378.1570
87.7600 207.0986
87.7700 438.0698
87.7800 424.7176
87.7900 393.7746
87.8000 387.7220
87.8100 373.9748
87.8200 364.9964
87.8300 365.0336
87.8400 533.0846
87.8500 497.5734
87.8600 392.9664
87.8700 526.7100
87.8800 320.1638
87.8900 598.0888
87.9000 349.1862
87.9100 371.9004
87.9200 332.3186
87.9300 357.8450
87.9400 424.4402
87.9500 413.0294
87.9600 556.1292
87.9700 443.1800
87.9800 483.2376
87.9900 308.4802
88.0000 362.2690
88.0100 507.8264
88.0200 558.3120
88.0300 378.3284
88.0400 364.5790
88.0500 241.8946
88.0600 416.0122
88.0700 243.8320
88.0800 247.0124
88.0900 544.7362
88.1000 477.0396
88.1100 535.3160
88.1200 408.2396
88.1300 465.8340
88.1400 295.9378
88.1500 533.9724
88.1600 764.9808
88.1700 317.0520
88.1800 357.3612
88.1900 279.0674
88.2000 398.9534
88.2100 349.7630
88.2200 390.2886
88.2300 335.6412
88.2400 394.1170
88.2500 383.6892
88.2600 470.8432
88.2700 476.5890
88.2800 484.8950
88.2900 610.9306
88.3000 542.2328
88.3100 334.2922
88.3200 447.5216
88.3300 484.3866
88.3400 419.9408
88.3500 456.7572
88.3600 374.1476
88.3700 420.8540
88.3800 340.0284
88.3900 419.2750
88.4000 384.2088
88.4100 398.5716
88.4200 408.5148
88.4300 350.2256
88.4400 525.4762
88.4500 591.5418
88.4600 302.4368
88.4700 280.4946
88.4800 300.9712
88.4900 317.4392
88.5000 347.4848
88.5100 458.9852
88.5200 455.2536
88.5300 436.9108
88.5400 444.4508
88.5500 440.7818
88.5600 423.6130
88.5700 399.8182
88.5800 521.2926
88.5900 597.5420
88.6000 447.5800
88.6100 431.8856
88.6200 284.0046
88.6300 490.2256
88.6400 430.6694
88.6500 299.1458
88.6600 339.2254
88.6700 438.4764
88.6800 465.3010
88.6900 612.3798
88.7000 345.7016
88.7100 229.3642
88.7200 419.6460
88.7300 292.9814
88.7400 400.2632
88.7500 408.8102
88.7600 376.0548
88.7700 257.7900
88.7800 338.5808
88.7900 410.4596
88.8000 419.4362
88.8100 616.1114
88.8200 612.3468
88.8300 422.6614
88.8400 569.7982
88.8500 531.9672
88.8600 530.3696
88.8700 518.5126
88.8800 384.3136
88.8900 480.3412
88.9000 276.0168
88.9100 459.2944
88.9200 480.4094
88.9300 488.6782
88.9400 444.4856
88.9500 313.7416
88.9600 370.1614
88.9700 555.7516
88.9800 339.2110
88.9900 454.2202
89.0000 435.1424
89.0100 439.4600
89.0200 322.5006
89.0300 452.9656
89.0400 237.7322
89.0500 479.2836
89.0600 246.6592
89.0700 397.5456
89.0800 387.5948
89.0900 316.6746
89.1000 455.6494
89.1100 242.1184
89.1200 319.6162
89.1300 409.9916
89.1400 316.0094
89.1500 380.7356
89.1600 472.9296
89.1700 403.9348
89.1800 352.6850
89.1900 511.4092
89.2000 508.3936
89.2100 455.6668
89.2200 450.6240
89.2300 417.7968
89.2400 397.2704
89.2500 547.0700
89.2600 360.9514
89.2700 306.3518
89.2800 332.4122
89.2900 412.6292
89.3000 379.3796
89.3100 405.3160
89.3200 378.1538
89.3300 378.3102
89.3400 451.5244
89.3500 327.1128
89.3600 322.6434
89.3700 389.0218
89.3800 389.1552
89.3900 352.5412
89.4000 406.5894
89.4100 499.4614
89.4200 421.1822
89.4300 321.1066
89.4400 510.0054
89.4500 427.3260
89.4600 438.3724
89.4700 348.1932
89.4800 456.7110
89.4900 384.4594
89.5000 362.5696
89.5100 296.0356
89.5200 409.5174
89.5300 424.7348
89.5400 265.7910
89.5500 467.3270
89.5600 413.4420
89.5700 395.0556
89.5800 340.3802
89.5900 317.1062
89.6000 452.9620
89.6100 277.4058
89.6200 312.2020
89.6300 276.4688
89.6400 416.3764
89.6500 442.6720
89.6600 284.3426
89.6700 280.8698
89.6800 335.4670
89.6900 471.7404
89.7000 390.0798
89.7100 434.6664
89.7200 425.3916
89.7300 474.4460
89.7400 485.4244
89.7500 294.2104
89.7600 460.1244
89.7700 430.5936
89.7800 467.0258
89.7900 233.9304
89.8000 424.8712
89.8100 389.2382
89.8200 317.5262
89.8300 406.4408
89.8400 234.0154
89.8500 353.2482
89.8600 382.8036
89.8700 487.1312
89.8800 301.9120
89.8900 355.9792
89.9000 432.3014
89.9100 461.9090
89.9200 424.9872
89.9300 405.2758
89.9400 388.9260
89.9500 393.9810
89.9600 419.8006
89.9700 308.5414
89.9800 302.5462
89.9900 567.7732
90.0000 444.1910
