#Intensity_unit=cps
#Attenuator_coefficient=1.0000
4.0000 5659.4422
4.0100 6065.8096
4.0200 5836.9360
4.0300 5551.3178
4.0400 5631.5496
4.0500 5857.5164
4.0600 5882.6966
4.0700 6254.3620
4.0800 5361.2366
4.0900 5354.1698
4.1000 5058.5316
4.1100 5250.4960
4.1200 5621.0876
4.1300 5814.4134
4.1400 5700.4370
4.1500 5031.0272
4.1600 5497.0856
4.1700 5680.2776
4.1800 5949.0728
4.1900 5734.4188
4.2000 5336.7732
4.2100 5363.5930
4.2200 5755.3518
4.2300 5735.9284
4.2400 5669.5918
4.2500 5597.3332
4.2600 5827.8392
4.2700 5248.9476
4.2800 5413.8418
4.2900 5263.9400
4.3000 5083.6888
4.3100 5152.5726
4.3200 5069.7214
4.3300 5228.3422
4.3400 5194.9228
4.3500 4935.1268
4.3600 5502.3300
4.3700 5273.0968
4.3800 5333.8832
4.3900 4642.6814
4.4000 4464.1302
4.4100 5327.0538
4.4200 4945.9218
4.4300 4598.2982
4.4400 4661.4736
4.4500 4993.8116
4.4600 5025.2854
4.4700 4928.7644
4.4800 4228.3838
4.4900 4687.0850
4.5000 4972.5046
4.5100 4982.2962
4.5200 5415.4546
4.5300 5188.5376
4.5400 5135.8556
4.5500 5350.3642
4.5600 4823.2234
4.5700 4537.6948
4.5800 4448.1644
4.5900 4628.5762
4.6000 4480.3858
4.6100 4993.3996
4.6200 5322.8988
4.6300 4353.2684
4.6400 4774.7686
4.6500 4555.3838
4.6600 4642.4214
4.6700 4865.1346
4.6800 4610.8072
4.6900 4509.6990
4.7000 4798.7860
4.7100 4630.5180
4.7200 4753.1178
4.7300 4850.1720
4.7400 4407.2270
4.7500 4632.1686
4.7600 4683.1254
4.7700 4033.8474
4.7800 4653.5654
4.7900 4707.4662
4.8000 5221.1208
4.8100 4898.1928
4.8200 4078.3794
4.8300 4264.9696
4.8400 4285.1826
4.8500 4187.6510
4.8600 4955.9748
4.8700 4492.9082
4.8800 4160.3098
4.8900 4873.6328
4.9000 4836.8882
4.9100 3950.3888
4.9200 4447.1126
4.9300 4069.8248
4.9400 4869.7514
4.9500 4478.9418
4.9600 4530.8726
4.9700 4400.6628
4.9800 4983.7590
4.9900 5276.1016
5.0000 4638.6210
5.0100 4447.9288
5.0200 5092.9800
5.0300 4038.2654
5.0400 4567.2176
5.0500 4599.1500
5.0600 4463.4242
5.0700 4466.8162
5.0800 4110.4568
5.0900 4248.2302
5.1000 4087.8328
5.1100 4453.4562
5.1200 4408.1136
5.1300 4401.0788
5.1400 4408.6472
5.1500 4245.5078
5.1600 4443.7520
5.1700 4337.3800
5.1800 3937.3644
5.1900 3669.1076
5.2000 4505.9484
5.2100 4719.6604
5.2200 4253.5358
5.2300 4538.2812
5.2400 4231.6228
5.2500 4057.7190
5.2600 4286.0956
5.2700 4041.1756
5.2800 4394.6544
5.2900 3801.8910
5.3000 4406.0832
5.3100 4211.4042
5.3200 4197.8046
5.3300 4355.8706
5.3400 4681.6126
5.3500 4296.8018
5.3600 3669.8210
5.3700 4104.2204
5.3800 3719.2614
5.3900 3941.0588
5.4000 4483.2276
5.4100 4100.9320
5.4200 3978.3248
5.4300 4111.6514
5.4400 4395.1588
5.4500 4525.8378
5.4600 4277.6718
5.4700 3866.8824
5.4800 3496.5190
5.4900 4002.9042
5.5000 4188.6442
5.5100 4482.6956
5.5200 3724.1308
5.5300 4041.5762
5.5400 4445.2662
5.5500 4076.9486
5.5600 3951.2288
5.5700 4024.3142
5.5800 3563.1440
5.5900 3579.4820
5.6000 4167.4482
5.6100 3743.7192
5.6200 3894.8566
5.6300 3435.6816
5.6400 3608.8312
5.6500 4138.6856
5.6600 3812.5982
5.6700 3890.3486
5.6800 4133.7326
5.6900 3757.1546
5.7000 3904.6684
5.7100 3503.6716
5.7200 3531.3536
5.7300 3527.8966
5.7400 4244.5356
5.7500 3934.3822
5.7600 3914.3876
5.7700 3777.6604
5.7800 3885.8964
5.7900 3890.9128
5.8000 3320.1892
5.8100 3401.5076
5.8200 3598.7442
5.8300 3557.4358
5.8400 3869.4280
5.8500 3483.6368
5.8600 3743.0552
5.8700 3801.5310
5.8800 3740.0834
5.8900 3746.9760
5.9000 3257.0152
5.9100 3500.5674
5.9200 3600.3412
5.9300 3353.6186
5.9400 3681.2256
5.9500 4070.3358
5.9600 3993.1248
5.9700 3470.4788
5.9800 3458.8990
5.9900 3311.5582
6.0000 3822.5664
6.0100 3993.5184
6.0200 3881.9000
6.0300 3356.9666
6.0400 3551.7702
6.0500 3593.9844
6.0600 4107.6166
6.0700 3306.8346
6.0800 3559.4244
6.0900 3469.9404
6.1000 3539.5884
6.1100 3400.2634
6.1200 3321.8694
6.1300 3512.2010
6.1400 3520.3908
6.1500 3806.0224
6.1600 3451.6414
6.1700 3499.2042
6.1800 3710.0158
6.1900 3480.8882
6.2000 3363.8070
6.2100 3084.8136
6.2200 3371.2816
6.2300 3489.6046
6.2400 3506.9956
6.2500 3384.8134
6.2600 3309.1074
6.2700 3472.6858
6.2800 3246.1672
6.2900 3573.6170
6.3000 3756.9458
6.3100 3209.9612
6.3200 3245.8776
6.3300 3144.0650
6.3400 3222.8094
6.3500 3284.1716
6.3600 3636.5586
6.3700 3252.5562
6.3800 3388.3154
6.3900 2883.9470
6.4000 3085.0154
6.4100 3196.2118
6.4200 3072.9222
6.4300 3746.9592
6.4400 3072.8274
6.4500 2806.8524
6.4600 3346.5604
6.4700 3260.1446
6.4800 3460.4950
6.4900 3071.0628
6.5000 3073.6808
6.5100 3127.5746
6.5200 3422.7842
6.5300 2942.7412
6.5400 3035.8066
6.5500 3110.3852
6.5600 2885.1720
6.5700 3349.0768
6.5800 3114.1766
6.5900 3071.5904
6.6000 3160.3584
6.6100 3215.1552
6.6200 2852.7822
6.6300 3622.1344
6.6400 3076.2054
6.6500 2964.8228
6.6600 3203.4658
6.6700 2959.0762
6.6800 3631.9756
6.6900 2855.8266
6.7000 3057.9564
6.7100 3384.4462
6.7200 3319.8038
6.7300 2941.8004
6.7400 3032.2128
6.7500 2997.1310
6.7600 3144.6854
6.7700 3339.4376
6.7800 2769.0226
6.7900 2968.3790
6.8000 2964.2102
6.8100 2750.4760
6.8200 3137.5168
6.8300 2927.1606
6.8400 3540.6552
6.8500 3003.7106
6.8600 2740.3902
6.8700 2634.0240
6.8800 2802.6990
6.8900 3298.9710
6.9000 3171.5014
6.9100 3527.8402
6.9200 2874.7582
6.9300 2922.9192
6.9400 2977.8122
6.9500 3417.3934
6.9600 3098.6146
6.9700 2901.4702
6.9800 2777.6874
6.9900 2765.2604
7.0000 2487.5320
7.0100 2970.2464
7.0200 3238.8220
7.0300 3101.9372
7.0400 2947.1164
7.0500 2979.0936
7.0600 2899.1298
7.0700 2971.4150
7.0800 3391.0902
7.0900 2617.9560
7.1000 2695.4738
7.1100 2673.9686
7.1200 3102.1742
7.1300 2960.4904
7.1400 2959.0460
7.1500 2517.6818
7.1600 2690.8414
7.1700 2584.2390
7.1800 2471.8864
7.1900 2557.0684
7.2000 2778.9282
7.2100 2672.1638
7.2200 2565.2848
7.2300 2627.9322
7.2400 3081.9104
7.2500 2767.5588
7.2600 2455.7472
7.2700 2310.1532
7.2800 2873.3086
7.2900 3244.3370
7.3000 2662.8690
7.3100 2570.9106
7.3200 2652.9360
7.3300 2548.9570
7.3400 2943.8764
7.3500 2815.4046
7.3600 2895.7342
7.3700 2511.0146
7.3800 3178.5672
7.3900 2621.6288
7.4000 2722.9208
7.4100 2531.2558
7.4200 2909.1748
7.4300 2412.4304
7.4400 2930.3184
7.4500 2622.4040
7.4600 2861.9138
7.4700 2217.3358
7.4800 2509.2600
7.4900 2678.7728
7.5000 2749.4130
7.5100 2669.6184
7.5200 2631.3658
7.5300 2852.6632
7.5400 3013.8810
7.5500 2545.9890
7.5600 2479.1186
7.5700 2891.6054
7.5800 2650.0512
7.5900 2535.9830
7.6000 2641.5624
7.6100 2563.2980
7.6200 2818.2398
7.6300 2560.1136
7.6400 2696.2126
7.6500 2751.5536
7.6600 2421.9096
7.6700 2260.1746
7.6800 2534.7702
7.6900 2394.2626
7.7000 2381.8716
7.7100 2613.8796
7.7200 2360.4754
7.7300 2649.5674
7.7400 2632.1998
7.7500 2445.5960
7.7600 2626.7350
7.7700 2454.4582
7.7800 2085.1394
7.7900 2433.0430
7.8000 2285.9922
7.8100 2492.3440
7.8200 2922.3656
7.8300 2684.9428
7.8400 2358.8664
7.8500 2453.2218
7.8600 2303.8226
7.8700 2421.1286
7.8800 2349.9504
7.8900 2135.0642
7.9000 2349.8078
7.9100 1983.3436
7.9200 2440.3962
7.9300 2244.1290
7.9400 2589.3184
7.9500 2390.5588
7.9600 2738.7174
7.9700 2344.3518
7.9800 2350.5854
7.9900 1670.3422
8.0000 2234.3404
8.0100 2287.3998
8.0200 2399.1906
8.0300 2472.0944
8.0400 2595.6866
8.0500 2737.0514
8.0600 2576.2500
8.0700 2453.4416
8.0800 2532.6698
8.0900 2536.3150
8.1000 2781.9516
8.1100 2687.4604
8.1200 2291.5540
8.1300 2565.9112
8.1400 2414.7476
8.1500 2764.7692
8.1600 2489.5006
8.1700 2307.3468
8.1800 2634.9314
8.1900 2722.9348
8.2000 2401.3756
8.2100 2881.9410
8.2200 2821.0554
8.2300 2580.1328
8.2400 2941.1492
8.2500 2982.6624
8.2600 3278.5940
8.2700 2586.6892
8.2800 2562.2946
8.2900 3177.2346
8.3000 2792.0388
8.3100 2633.1264
8.3200 2634.8524
8.3300 2743.4172
8.3400 2438.5200
8.3500 2690.1688
8.3600 2471.7736
8.3700 2467.7048
8.3800 2512.5920
8.3900 2159.5058
8.4000 2759.7340
8.4100 2352.2598
8.4200 2187.9112
8.4300 2676.1234
8.4400 2672.1914
8.4500 2352.4328
8.4600 2011.6142
8.4700 1857.2986
8.4800 2632.5198
8.4900 2430.2698
8.5000 2420.7820
8.5100 1848.8884
8.5200 2272.1028
8.5300 2177.5718
8.5400 2108.5808
8.5500 2552.6138
8.5600 2155.3470
8.5700 2348.9200
8.5800 2225.1348
8.5900 2026.0122
8.6000 2140.6102
8.6100 2328.7094
8.6200 2406.7218
8.6300 1905.0126
8.6400 2451.1494
8.6500 2105.3822
8.6600 1938.7078
8.6700 1764.1850
8.6800 2389.5828
8.6900 2372.5190
8.7000 2126.0738
8.7100 2075.3254
8.7200 2171.8844
8.7300 2318.1584
8.7400 2186.3526
8.7500 2524.0750
8.7600 2259.7346
8.7700 2639.3224
8.7800 2133.2970
8.7900 2198.2982
8.8000 2513.5852
8.8100 2066.5898
8.8200 1788.5622
8.8300 2001.3422
8.8400 1891.6956
8.8500 1574.4332
8.8600 1909.2882
8.8700 2151.9688
8.8800 1761.6362
8.8900 2179.8506
8.9000 1827.4392
8.9100 2024.5850
8.9200 2385.5400
8.9300 2174.2872
8.9400 2144.6436
8.9500 1941.4148
8.9600 1951.6774
8.9700 1910.7906
8.9800 1942.9936
8.9900 1897.3826
9.0000 1955.1340
9.0100 1736.2090
9.0200 2192.2612
9.0300 1898.9608
9.0400 2337.4786
9.0500 1881.3772
9.0600 2089.7158
9.0700 2070.3606
9.0800 2024.7508
9.0900 2213.1170
9.1000 1979.1622
9.1100 2284.4660
9.1200 2008.5386
9.1300 1590.4324
9.1400 1983.3124
9.1500 1570.1102
9.1600 2165.4624
9.1700 1891.8720
9.1800 2433.0244
9.1900 2313.3734
9.2000 2257.5688
9.2100 2253.3412
9.2200 1979.2842
9.2300 1690.3902
9.2400 2056.4784
9.2500 1888.7368
9.2600 1971.3810
9.2700 2044.0416
9.2800 1678.7204
9.2900 1917.8898
9.3000 2044.8492
9.3100 2096.0178
9.3200 1790.2368
9.3300 1443.9406
9.3400 1647.5622
9.3500 1741.3312
9.3600 1876.0094
9.3700 1652.8072
9.3800 1865.5078
9.3900 1842.2308
9.4000 1893.1610
9.4100 1957.3596
9.4200 1870.7852
9.4300 1980.7212
9.4400 1942.0934
9.4500 1582.4132
9.4600 1673.8760
9.4700 1699.2322
9.4800 1824.6400
9.4900 1814.2828
9.5000 2011.3408
9.5100 1960.9982
9.5200 1912.6042
9.5300 2001.4246
9.5400 2055.8182
9.5500 1867.1472
9.5600 1637.5636
9.5700 1724.2974
9.5800 1720.9236
9.5900 2231.8456
9.6000 1920.1600
9.6100 1861.1460
9.6200 1837.0426
9.6300 2524.1500
9.6400 2002.3218
9.6500 1974.5614
9.6600 1520.4138
9.6700 1740.4842
9.6800 1731.8834
9.6900 2024.0710
9.7000 1572.5042
9.7100 1898.9234
9.7200 1611.3680
9.7300 2192.3118
9.7400 1593.0330
9.7500 1833.9544
9.7600 1752.5638
9.7700 1790.9952
9.7800 1512.8576
9.7900 1971.1740
9.8000 1780.3230
9.8100 1687.9302
9.8200 1358.2690
9.8300 1815.9592
9.8400 1951.4260
9.8500 1551.6320
9.8600 1569.3192
9.8700 1861.4744
9.8800 1976.3822
9.8900 1491.1478
9.9000 1880.5162
9.9100 2098.3334
9.9200 1686.1360
9.9300 1931.6326
9.9400 1525.3842
9.9500 2072.0184
9.9600 1315.2418
9.9700 1684.2026
9.9800 2065.5972
9.9900 1575.6086
10.0000 1752.2190
10.0100 1267.3768
10.0200 1668.5252
10.0300 1786.0422
10.0400 1665.9340
10.0500 1731.1660
10.0600 1865.4596
10.0700 2069.5898
10.0800 1954.5178
10.0900 1780.9108
10.1000 1708.9594
10.1100 1934.1122
10.1200 1864.5166
10.1300 1552.3742
10.1400 2012.5558
10.1500 1624.8496
10.1600 1777.2886
10.1700 1542.5202
10.1800 1837.2338
10.1900 1797.6618
10.2000 1731.8732
10.2100 1663.0734
10.2200 1564.9914
10.2300 1220.0846
10.2400 1606.4890
10.2500 1755.0186
10.2600 1711.0092
10.2700 1621.1912
10.2800 1726.5966
10.2900 1740.9348
10.3000 1877.5364
10.3100 1904.6104
10.3200 1751.5606
10.3300 1634.4938
10.3400 1727.5980
10.3500 1705.4624
10.3600 1795.9086
10.3700 1683.3488
10.3800 1596.0920
10.3900 1673.9006
10.4000 1435.1632
10.4100 1649.5204
10.4200 1712.5408
10.4300 1367.4770
10.4400 1368.0734
10.4500 1560.7728
10.4600 1522.4432
10.4700 1580.0542
10.4800 1704.0776
10.4900 1678.4408
10.5000 1654.7664
10.5100 1704.9294
10.5200 2020.6818
10.5300 1543.7256
10.5400 1389.3868
10.5500 1613.6452
10.5600 1742.6428
10.5700 1715.1656
10.5800 1560.8668
10.5900 1450.4194
10.6000 1432.5084
10.6100 1583.8802
10.6200 1395.4662
10.6300 1393.2520
10.6400 1506.4962
10.6500 1619.7602
10.6600 1414.4134
10.6700 1758.4896
10.6800 1765.9656
10.6900 1654.7814
10.7000 1580.4174
10.7100 1705.2480
10.7200 1628.7284
10.7300 1381.3046
10.7400 1791.2872
10.7500 1877.5396
10.7600 1599.6328
10.7700 1405.4488
10.7800 1692.1724
10.7900 1575.6980
10.8000 1524.0426
10.8100 1482.4226
10.8200 1700.1782
10.8300 1643.1586
10.8400 1594.9134
10.8500 1427.9182
10.8600 1563.7622
10.8700 1835.1006
10.8800 1761.2782
10.8900 1253.1068
10.9000 1501.0094
10.9100 1661.4456
10.9200 1237.2748
10.9300 1120.4664
10.9400 1218.5740
10.9500 1857.5492
10.9600 1522.3794
10.9700 1605.5898
10.9800 1544.1234
10.9900 1635.0070
11.0000 1511.0424
11.0100 1314.3746
11.0200 1530.7802
11.0300 1263.5924
11.0400 1330.5648
11.0500 1561.4550
11.0600 1579.6288
11.0700 1637.3694
11.0800 1162.9624
11.0900 1246.3150
11.1000 1652.5508
11.1100 1428.7754
11.1200 1414.4642
11.1300 1770.8402
11.1400 1850.7728
11.1500 1852.4696
11.1600 1523.4294
11.1700 1556.0232
11.1800 1498.1720
11.1900 1563.0214
11.2000 1307.5604
11.2100 1338.1586
11.2200 1314.3488
11.2300 1439.2766
11.2400 1415.6196
11.2500 1376.1660
11.2600 1479.1642
11.2700 1439.2560
11.2800 1218.7758
11.2900 1390.2140
11.3000 1643.4906
11.3100 1193.5138
11.3200 1145.6198
11.3300 1373.3450
11.3400 1381.5054
11.3500 1123.3204
11.3600 1402.8046
11.3700 1652.0786
11.3800 1376.2896
11.3900 1176.1390
11.4000 1285.5416
11.4100 1280.8772
11.4200 1013.9842
11.4300 1532.1304
11.4400 1363.3700
11.4500 1794.6056
11.4600 1747.0980
11.4700 1418.2418
11.4800 1421.5606
11.4900 1295.1746
11.5000 1374.9724
11.5100 1562.3804
11.5200 1584.2732
11.5300 1650.5546
11.5400 1353.5462
11.5500 1392.8900
11.5600 1478.3678
11.5700 1207.4652
11.5800 1314.2042
11.5900 1451.9098
11.6000 1247.5814
11.6100 1127.2800
11.6200 1415.5926
11.6300 1541.7648
11.6400 1499.4982
11.6500 1334.1924
11.6600 1619.8280
11.6700 1484.1200
11.6800 1362.4468
11.6900 1584.9132
11.7000 1172.3624
11.7100 1224.6026
11.7200 1597.1084
11.7300 1285.9058
11.7400 1571.7990
11.7500 1487.6848
11.7600 1472.3498
11.7700 1458.9310
11.7800 1638.9480
11.7900 1492.9174
11.8000 1243.8722
11.8100 1326.2628
11.8200 1541.3032
11.8300 1540.4306
11.8400 1714.0670
11.8500 1551.8924
11.8600 1521.9128
11.8700 1827.6088
11.8800 1499.9554
11.8900 1426.3658
11.9000 1246.9042
11.9100 1115.0268
11.9200 1380.2636
11.9300 1625.2194
11.9400 1450.7082
11.9500 1756.0708
11.9600 1747.2718
11.9700 1600.3396
11.9800 1249.0830
11.9900 1517.5520
12.0000 1435.2952
12.0100 1472.4018
12.0200 1439.1932
12.0300 1369.3270
12.0400 1352.2724
12.0500 1411.0470
12.0600 1502.1714
12.0700 1332.8870
12.0800 1567.3154
12.0900 1252.9402
12.1000 1774.8998
12.1100 1575.7676
12.1200 1393.4980
12.1300 1197.6620
12.1400 1349.1958
12.1500 1475.2326
12.1600 1613.5008
12.1700 1499.2538
12.1800 1601.3526
12.1900 1390.2220
12.2000 1579.4476
12.2100 1372.2036
12.2200 1335.4644
12.2300 1322.5644
12.2400 1466.3164
12.2500 1323.9152
12.2600 1473.8104
12.2700 1334.9476
12.2800 1730.9980
12.2900 1420.2320
12.3000 1341.5864
12.3100 1798.0856
12.3200 1825.9274
12.3300 1245.9802
12.3400 1838.3076
12.3500 1438.6038
12.3600 1594.0780
12.3700 1805.8504
12.3800 1373.5706
12.3900 1502.2904
12.4000 1881.6968
12.4100 1496.9802
12.4200 1709.7140
12.4300 1724.1870
12.4400 1645.7004
12.4500 1562.7778
12.4600 1752.9614
12.4700 1867.7402
12.4800 1959.2236
12.4900 1814.1150
12.5000 1470.6358
12.5100 1709.5850
12.5200 2107.1774
12.5300 2285.4230
12.5400 1917.5836
12.5500 2401.0252
12.5600 2245.2032
12.5700 2413.0696
12.5800 2818.1696
12.5900 3023.1110
12.6000 3302.0862
12.6100 3545.6162
12.6200 3255.1272
12.6300 3812.3138
12.6400 4483.9290
12.6500 4158.9478
12.6600 4960.9350
12.6700 4510.8784
12.6800 5052.8468
12.6900 5382.9982
12.7000 5052.9042
12.7100 5259.2810
12.7200 5239.5096
12.7300 4974.9746
12.7400 4780.7968
12.7500 4650.8514
12.7600 4608.3440
12.7700 3753.0200
12.7800 3423.8522
12.7900 3544.5992
12.8000 3069.3464
12.8100 3188.8894
12.8200 3308.1254
12.8300 2740.3836
12.8400 2688.7194
12.8500 2675.6924
12.8600 2038.1524
12.8700 2205.4728
12.8800 1750.7110
12.8900 1739.4452
12.9000 1478.6162
12.9100 1562.0254
12.9200 1626.9808
12.9300 1514.2318
12.9400 1524.4398
12.9500 1201.4100
12.9600 1595.1958
12.9700 1613.7856
12.9800 1471.3132
12.9900 1593.6010
13.0000 1405.5466
13.0100 1446.4008
13.0200 1432.5166
13.0300 1350.1604
13.0400 1559.1850
13.0500 1692.7744
13.0600 1472.3810
13.0700 1565.8034
13.0800 1622.1484
13.0900 1450.1556
13.1000 1296.6324
13.1100 1157.8688
13.1200 1576.8452
13.1300 1365.3486
13.1400 1529.5928
13.1500 1366.1908
13.1600 1424.7502
13.1700 1442.7182
13.1800 1188.1186
13.1900 1342.2150
13.2000 1319.7598
13.2100 1402.2476
13.2200 1458.9768
13.2300 1177.9130
13.2400 1409.6516
13.2500 1299.7938
13.2600 1444.0066
13.2700 1210.3784
13.2800 1236.6736
13.2900 1626.1156
13.3000 1546.7648
13.3100 1257.1976
13.3200 1339.4800
13.3300 1435.6550
13.3400 1471.6444
13.3500 1272.2236
13.3600 1843.6974
13.3700 1924.4078
13.3800 1274.7756
13.3900 1249.3734
13.4000 1591.2084
13.4100 1286.4388
13.4200 1223.6910
13.4300 1431.7740
13.4400 1885.9676
13.4500 1668.0970
13.4600 1677.9542
13.4700 1261.8774
13.4800 1137.5894
13.4900 1675.4502
13.5000 1398.5762
13.5100 1687.8108
13.5200 1837.1528
13.5300 1450.9998
13.5400 1692.7064
13.5500 1563.4534
13.5600 1657.6976
13.5700 1547.3028
13.5800 1897.2476
13.5900 1659.5316
13.6000 1850.4956
13.6100 1861.1118
13.6200 1586.5044
13.6300 1830.5540
13.6400 1898.9150
13.6500 1852.3738
13.6600 2234.4172
13.6700 1814.1828
13.6800 2065.2492
13.6900 2026.7700
13.7000 1743.0000
13.7100 1754.8414
13.7200 1346.0926
13.7300 1897.7550
13.7400 1765.8476
13.7500 1921.0932
13.7600 1866.1474
13.7700 1558.6312
13.7800 1984.1954
13.7900 1529.6056
13.8000 1552.6538
13.8100 1747.9608
13.8200 1893.9762
13.8300 1660.0682
13.8400 2314.0068
13.8500 1978.6584
13.8600 2206.1496
13.8700 2351.7726
13.8800 2210.0776
13.8900 1940.5798
13.9000 2346.0440
13.9100 2438.7492
13.9200 2880.8158
13.9300 2484.5162
13.9400 2942.6506
13.9500 3216.6178
13.9600 3054.3104
13.9700 3188.2548
13.9800 3573.9438
13.9900 3449.8484
14.0000 3938.1684
14.0100 3674.9830
14.0200 3960.3012
14.0300 4539.6688
14.0400 4810.0530
14.0500 5248.5550
14.0600 6289.8102
14.0700 6498.8428
14.0800 7097.7484
14.0900 8584.5480
14.1000 9847.7742
14.1100 11314.5244
14.1200 13178.7750
14.1300 15142.2698
14.1400 16758.9224
14.1500 19491.8212
14.1600 21196.5596
14.1700 24135.2050
14.1800 27176.6378
14.1900 28263.9668
14.2000 28331.8014
14.2100 28652.4374
14.2200 29146.1548
14.2300 28082.4300
14.2400 26670.7804
14.2500 24596.2098
14.2600 22176.1882
14.2700 18801.4974
14.2800 16437.2558
14.2900 13260.0158
14.3000 10601.5788
14.3100 9587.5376
14.3200 8090.3564
14.3300 6874.1186
14.3400 5783.1666
14.3500 5694.1742
14.3600 5028.0808
14.3700 4828.6204
14.3800 4117.6196
14.3900 3818.9258
14.4000 3265.6258
14.4100 3421.5292
14.4200 2924.6976
14.4300 3089.7000
14.4400 3263.0928
14.4500 2609.9380
14.4600 2647.7878
14.4700 2425.8412
14.4800 2558.4340
14.4900 1858.9158
14.5000 1908.9530
14.5100 1706.5200
14.5200 1632.1820
14.5300 1616.4394
14.5400 2030.6050
14.5500 1584.4736
14.5600 1539.7402
14.5700 1906.9978
14.5800 1807.6260
14.5900 1491.7620
14.6000 1868.1348
14.6100 1640.0152
14.6200 1662.0924
14.6300 1269.9840
14.6400 1704.1192
14.6500 1712.2454
14.6600 1341.8192
14.6700 1168.8108
14.6800 1493.1482
14.6900 1767.0064
14.7000 1538.9100
14.7100 1380.0030
14.7200 1224.2462
14.7300 1415.0876
14.7400 1081.3012
14.7500 1174.1888
14.7600 1228.5354
14.7700 1211.1704
14.7800 1605.1018
14.7900 1246.3582
14.8000 1338.4508
14.8100 1340.5004
14.8200 1343.8224
14.8300 1399.4012
14.8400 1137.1080
14.8500 1037.5938
14.8600 1453.3490
14.8700 1252.7528
14.8800 1356.3496
14.8900 1164.2004
14.9000 1279.3046
14.9100 1281.5944
14.9200 1124.6986
14.9300 1237.3088
14.9400 1378.3288
14.9500 1011.5362
14.9600 1012.5496
14.9700 1465.3578
14.9800 1255.1110
14.9900 1447.2602
15.0000 1194.0974
15.0100 1216.3420
15.0200 1083.9294
15.0300 1013.3020
15.0400 999.9930
15.0500 1041.7888
15.0600 1179.1826
15.0700 1300.7982
15.0800 966.2380
15.0900 1166.9844
15.1000 1417.1502
15.1100 1183.1008
15.1200 1190.3748
15.1300 840.3454
15.1400 1085.1230
15.1500 1026.8232
15.1600 951.3490
15.1700 1140.5084
15.1800 774.0194
15.1900 1004.4632
15.2000 1201.3844
15.2100 1383.4996
15.2200 1192.7608
15.2300 1233.4864
15.2400 975.5422
15.2500 988.9298
15.2600 1015.7258
15.2700 959.5622
15.2800 851.4256
15.2900 1039.1212
15.3000 1334.3378
15.3100 1055.8102
15.3200 1257.6904
15.3300 782.4728
15.3400 954.0052
15.3500 923.3470
15.3600 1139.3540
15.3700 1117.7396
15.3800 974.5452
15.3900 1168.7006
15.4000 1099.0744
15.4100 1120.9994
15.4200 1052.0802
15.4300 890.3450
15.4400 1236.4170
15.4500 1070.6652
15.4600 1128.2670
15.4700 1089.2078
15.4800 938.0398
15.4900 1213.8198
15.5000 924.3832
15.5100 1028.2674
15.5200 1114.4582
15.5300 1153.7300
15.5400 1032.5512
15.5500 881.9054
15.5600 1092.0252
15.5700 1517.7424
15.5800 946.4074
15.5900 1028.9080
15.6000 772.6726
15.6100 731.3072
15.6200 998.5206
15.6300 1213.2092
15.6400 564.1614
15.6500 1038.2374
15.6600 996.4016
15.6700 1233.3190
15.6800 1056.4508
15.6900 936.4288
15.7000 1562.8340
15.7100 944.0586
15.7200 1181.4834
15.7300 1028.8016
15.7400 1146.2732
15.7500 1112.3440
15.7600 984.7650
15.7700 979.2098
15.7800 1034.2618
15.7900 707.0738
15.8000 1018.6760
15.8100 860.9790
15.8200 1238.7334
15.8300 1012.7884
15.8400 788.7920
15.8500 930.5660
15.8600 960.7486
15.8700 924.2124
15.8800 813.7598
15.8900 1070.5328
15.9000 767.8096
15.9100 743.7688
15.9200 783.9870
15.9300 917.7006
15.9400 1033.6276
15.9500 903.7310
15.9600 797.8080
15.9700 1250.7120
15.9800 1275.9246
15.9900 770.5722
16.0000 740.4772
16.0100 1272.0732
16.0200 981.2256
16.0300 1236.6630
16.0400 921.9218
16.0500 1145.6030
16.0600 1122.1126
16.0700 871.6390
16.0800 1092.3906
16.0900 970.0228
16.1000 920.4102
16.1100 1043.9446
16.1200 1125.5588
16.1300 1001.5148
16.1400 796.4378
16.1500 797.8286
16.1600 990.8772
16.1700 1398.9912
16.1800 1130.2664
16.1900 1139.1652
16.2000 1137.7962
16.2100 1192.3326
16.2200 1101.4120
16.2300 966.2436
16.2400 587.1274
16.2500 981.4816
16.2600 870.7024
16.2700 1086.8242
16.2800 1217.5618
16.2900 1081.5650
16.3000 973.6038
16.3100 1179.1420
16.3200 910.5784
16.3300 1164.8746
16.3400 1051.0814
16.3500 965.1818
16.3600 776.3080
16.3700 1052.5120
16.3800 1165.1364
16.3900 1242.3412
16.4000 1211.9234
16.4100 1128.8640
16.4200 1120.2468
16.4300 1221.3532
16.4400 1382.4654
16.4500 1059.2118
16.4600 1185.5250
16.4700 933.8788
16.4800 1051.6700
16.4900 937.5152
16.5000 1081.8092
16.5100 733.0026
16.5200 1061.5896
16.5300 933.3856
16.5400 1082.0170
16.5500 1116.4728
16.5600 1252.8374
16.5700 1081.7274
16.5800 1476.0234
16.5900 1267.1710
16.6000 988.7020
16.6100 940.9668
16.6200 956.0600
16.6300 901.1104
16.6400 897.6560
16.6500 793.8592
16.6600 969.2864
16.6700 950.2776
16.6800 918.7654
16.6900 964.1578
16.7000 969.6952
16.7100 1170.9566
16.7200 1050.2578
16.7300 959.0230
16.7400 717.3306
16.7500 914.7000
16.7600 1025.6054
16.7700 959.2504
16.7800 863.7642
16.7900 794.0822
16.8000 893.4954
16.8100 770.0428
16.8200 1092.3334
16.8300 770.0388
16.8400 686.5662
16.8500 933.1792
16.8600 910.1434
16.8700 753.7296
16.8800 835.1878
16.8900 1108.3474
16.9000 678.8148
16.9100 1135.2012
16.9200 1236.2028
16.9300 1132.8966
16.9400 957.5548
16.9500 874.9740
16.9600 976.0670
16.9700 1067.2958
16.9800 913.6338
16.9900 958.7360
17.0000 744.3344
17.0100 1071.2794
17.0200 1097.8920
17.0300 1514.4670
17.0400 1116.3878
17.0500 844.8034
17.0600 992.0592
17.0700 1043.8184
17.0800 969.8790
17.0900 1036.6652
17.1000 826.6970
17.1100 654.2614
17.1200 792.3260
17.1300 1221.6660
17.1400 1043.6916
17.1500 971.1622
17.1600 1353.4184
17.1700 949.3418
17.1800 936.8622
17.1900 1311.3358
17.2000 649.1498
17.2100 845.6258
17.2200 919.6098
17.2300 744.7900
17.2400 944.8310
17.2500 1014.7178
17.2600 1178.3260
17.2700 920.3864
17.2800 852.2842
17.2900 958.7576
17.3000 1174.4910
17.3100 816.1862
17.3200 1071.4072
17.3300 1333.2032
17.3400 1010.2640
17.3500 990.3530
17.3600 1409.6682
17.3700 906.9302
17.3800 974.1988
17.3900 792.3828
17.4000 1040.2064
17.4100 1004.3486
17.4200 967.2868
17.4300 1179.8214
17.4400 1106.5846
17.4500 957.3918
17.4600 1102.0354
17.4700 781.5656
17.4800 1415.0498
17.4900 939.0944
17.5000 822.7476
17.5100 746.5596
17.5200 840.4400
17.5300 1056.1480
17.5400 1046.5640
17.5500 979.8072
17.5600 1119.4962
17.5700 1077.9408
17.5800 1082.0872
17.5900 1000.1994
17.6000 848.5720
17.6100 1169.4636
17.6200 1134.5362
17.6300 1145.7556
17.6400 721.4526
17.6500 702.1360
17.6600 1087.2100
17.6700 775.7064
17.6800 988.9008
17.6900 790.4526
17.7000 851.4652
17.7100 968.1500
17.7200 1011.9252
17.7300 818.2122
17.7400 913.4218
17.7500 828.6674
17.7600 792.7008
17.7700 963.8456
17.7800 1270.6066
17.7900 1041.9688
17.8000 742.7786
17.8100 1006.6082
17.8200 1107.7528
17.8300 879.9440
17.8400 642.8868
17.8500 813.6938
17.8600 1008.1542
17.8700 811.2634
17.8800 799.9452
17.8900 1047.3294
17.9000 832.6368
17.9100 910.7754
17.9200 896.4768
17.9300 825.8762
17.9400 814.0226
17.9500 1040.8546
17.9600 1504.8666
17.9700 821.8428
17.9800 967.0536
17.9900 1233.3660
18.0000 1295.0284
18.0100 1207.9110
18.0200 938.8150
18.0300 822.6566
18.0400 1189.9964
18.0500 921.2308
18.0600 879.1934
18.0700 979.8002
18.0800 1047.4694
18.0900 659.6056
18.1000 654.8502
18.1100 709.5448
18.1200 1275.1150
18.1300 785.7998
18.1400 933.8088
18.1500 1037.9680
18.1600 657.9536
18.1700 1049.7640
18.1800 935.7244
18.1900 1002.4460
18.2000 1004.5004
18.2100 975.6442
18.2200 976.2636
18.2300 872.7730
18.2400 817.0170
18.2500 651.0952
18.2600 797.2604
18.2700 888.6394
18.2800 786.9816
18.2900 1063.6036
18.3000 972.9648
18.3100 1154.1470
18.3200 1156.5318
18.3300 1156.6474
18.3400 961.0480
18.3500 1042.8790
18.3600 1188.5526
18.3700 1142.4380
18.3800 1411.7540
18.3900 857.2306
18.4000 902.2296
18.4100 787.3178
18.4200 1005.6526
18.4300 1354.0434
18.4400 1147.9462
18.4500 942.8190
18.4600 818.9390
18.4700 1251.6382
18.4800 1059.0704
18.4900 946.3778
18.5000 859.5908
18.5100 1027.9362
18.5200 1209.0134
18.5300 1020.8398
18.5400 929.6526
18.5500 783.7234
18.5600 788.5664
18.5700 957.2738
18.5800 975.8082
18.5900 879.3444
18.6000 893.1256
18.6100 1177.4178
18.6200 1037.0410
18.6300 944.6990
18.6400 854.6702
18.6500 1035.9258
18.6600 895.3042
18.6700 981.5890
18.6800 955.5398
18.6900 1027.8786
18.7000 1163.7778
18.7100 949.7466
18.7200 660.8856
18.7300 1213.8362
18.7400 861.6652
18.7500 832.1968
18.7600 866.5334
18.7700 1063.5452
18.7800 1062.9590
18.7900 873.0034
18.8000 874.6886
18.8100 945.6658
18.8200 1047.9722
18.8300 977.5932
18.8400 1241.0494
18.8500 965.3484
18.8600 987.7500
18.8700 1052.1284
18.8800 929.2614
18.8900 875.4194
18.9000 1149.4738
18.9100 960.5850
18.9200 1254.6578
18.9300 971.8848
18.9400 857.3568
18.9500 823.3242
18.9600 962.8804
18.9700 941.6040
18.9800 711.8702
18.9900 902.6732
19.0000 1119.6578
19.0100 761.6614
19.0200 1120.1544
19.0300 1283.2150
19.0400 810.9226
19.0500 774.8904
19.0600 1098.7964
19.0700 924.8814
19.0800 809.7476
19.0900 1080.6144
19.1000 881.6786
19.1100 996.2928
19.1200 1000.2548
19.1300 963.3238
19.1400 965.3890
19.1500 866.5154
19.1600 993.9024
19.1700 1054.7124
19.1800 930.8816
19.1900 1263.9474
19.2000 1063.5342
19.2100 1171.6584
19.2200 835.9080
19.2300 978.2990
19.2400 892.4554
19.2500 1271.7428
19.2600 1280.3210
19.2700 985.8460
19.2800 1011.2182
19.2900 916.1198
19.3000 1389.1834
19.3100 1260.1540
19.3200 1122.5978
19.3300 1181.6372
19.3400 1295.5062
19.3500 910.8912
19.3600 1054.9024
19.3700 1109.2330
19.3800 1119.9152
19.3900 979.0898
19.4000 1041.1404
19.4100 959.3554
19.4200 1053.2004
19.4300 958.3622
19.4400 1150.8960
19.4500 1285.8958
19.4600 1031.5738
19.4700 1082.9586
19.4800 1316.5520
19.4900 1325.4280
19.5000 1060.6640
19.5100 1301.7210
19.5200 1141.8918
19.5300 1183.1310
19.5400 777.7242
19.5500 982.8976
19.5600 1004.9718
19.5700 1289.1802
19.5800 1268.0956
19.5900 958.8986
19.6000 987.2054
19.6100 1345.4128
19.6200 1239.4214
19.6300 1251.1618
19.6400 1111.4922
19.6500 1099.4220
19.6600 1215.9618
19.6700 942.8560
19.6800 956.2562
19.6900 1194.1936
19.7000 1265.1354
19.7100 1248.0348
19.7200 1059.6060
19.7300 788.8496
19.7400 1139.8940
19.7500 1118.7814
19.7600 1348.6274
19.7700 1221.2956
19.7800 1204.0256
19.7900 1244.3212
19.8000 1390.0572
19.8100 1200.1404
19.8200 1101.0770
19.8300 1360.9330
19.8400 1371.9396
19.8500 1289.8946
19.8600 1363.1010
19.8700 1606.4446
19.8800 1678.0262
19.8900 1575.0456
19.9000 1493.2822
19.9100 1468.3682
19.9200 1449.1220
19.9300 1661.2792
19.9400 1670.1464
19.9500 1984.1290
19.9600 1893.8990
19.9700 1710.7224
19.9800 1950.2662
19.9900 1697.9484
20.0000 1920.0442
20.0100 2142.2994
20.0200 2503.3546
20.0300 3042.3236
20.0400 3418.0750
20.0500 3894.8412
20.0600 4543.2098
20.0700 5332.5678
20.0800 5857.6040
20.0900 6395.1370
20.1000 7089.4120
20.1100 7845.4040
20.1200 8580.5400
20.1300 9249.6562
20.1400 9174.7254
20.1500 9385.3964
20.1600 8314.1856
20.1700 7244.0836
20.1800 7291.2246
20.1900 6477.5538
20.2000 5127.0178
20.2100 4871.3446
20.2200 4495.9890
20.2300 3870.6670
20.2400 3439.8390
20.2500 2568.8098
20.2600 2623.0354
20.2700 1943.6448
20.2800 2738.6592
20.2900 2024.2858
20.3000 2034.8372
20.3100 1782.3322
20.3200 1793.8770
20.3300 1705.8902
20.3400 2010.1194
20.3500 1672.4212
20.3600 1537.2592
20.3700 1499.7712
20.3800 1462.5760
20.3900 1689.9444
20.4000 1383.2516
20.4100 1591.5220
20.4200 1029.9452
20.4300 1624.5836
20.4400 1320.7014
20.4500 1346.9468
20.4600 1281.7052
20.4700 1283.6252
20.4800 1313.0324
20.4900 1159.4980
20.5000 1427.9044
20.5100 1408.2008
20.5200 1202.4408
20.5300 1366.0258
20.5400 1184.3298
20.5500 966.4270
20.5600 1115.8924
20.5700 1306.4418
20.5800 1154.0450
20.5900 1129.9154
20.6000 808.9812
20.6100 1274.7876
20.6200 1052.3338
20.6300 1009.0746
20.6400 1159.6088
20.6500 1094.5294
20.6600 1164.1982
20.6700 1015.4692
20.6800 1206.5616
20.6900 1086.3284
20.7000 1270.3044
20.7100 1067.4186
20.7200 1052.2590
20.7300 1188.9492
20.7400 1135.8038
20.7500 994.9350
20.7600 1388.2230
20.7700 1419.7410
20.7800 1271.0094
20.7900 1278.8026
20.8000 1111.3838
20.8100 1363.9656
20.8200 1114.8428
20.8300 1190.7384
20.8400 937.8660
20.8500 920.2942
20.8600 1146.1500
20.8700 1146.9512
20.8800 1110.2486
20.8900 999.7728
20.9000 1187.2768
20.9100 1305.2332
20.9200 1102.3114
20.9300 1181.4824
20.9400 936.5112
20.9500 1150.5236
20.9600 1105.2816
20.9700 1277.3678
20.9800 1292.5132
20.9900 1259.4240
21.0000 1112.4412
21.0100 1168.8656
21.0200 1130.6196
21.0300 1110.8190
21.0400 1237.2152
21.0500 1100.8360
21.0600 1115.2994
21.0700 1197.3924
21.0800 1161.3372
21.0900 1139.2644
21.1000 839.1092
21.1100 995.5686
21.1200 1187.9478
21.1300 972.8344
21.1400 1172.4770
21.1500 1174.0984
21.1600 933.5246
21.1700 1418.2274
21.1800 1108.1968
21.1900 1066.0726
21.2000 1119.4534
21.2100 1115.0530
21.2200 1199.5732
21.2300 1308.1114
21.2400 1290.5634
21.2500 1341.1678
21.2600 1280.0548
21.2700 1485.5612
21.2800 1433.8522
21.2900 1437.4806
21.3000 1439.5346
21.3100 1331.3242
21.3200 1686.8340
21.3300 1616.0218
21.3400 1865.9604
21.3500 1917.0000
21.3600 1587.2018
21.3700 1714.0616
21.3800 1656.4034
21.3900 1804.1250
21.4000 1957.7926
21.4100 1834.0542
21.4200 2122.8290
21.4300 1632.8234
21.4400 1638.3458
21.4500 1599.7456
21.4600 1609.4908
21.4700 1584.6260
21.4800 1382.3430
21.4900 1097.4850
21.5000 1273.4540
21.5100 1288.7984
21.5200 1303.7952
21.5300 1443.8964
21.5400 1248.5280
21.5500 1134.3936
21.5600 1279.3190
21.5700 1238.2644
21.5800 1124.9248
21.5900 1173.1038
21.6000 1110.9232
21.6100 1155.4252
21.6200 1468.3842
21.6300 1205.5564
21.6400 1184.6844
21.6500 1339.7098
21.6600 1262.5944
21.6700 1258.7562
21.6800 1782.9026
21.6900 1346.3802
21.7000 1298.1848
21.7100 1174.9786
21.7200 879.2000
21.7300 1207.1426
21.7400 1531.2890
21.7500 1573.8294
21.7600 1123.8272
21.7700 1147.8216
21.7800 1352.1900
21.7900 885.9844
21.8000 1304.7566
21.8100 1426.8642
21.8200 1182.3340
21.8300 1271.5572
21.8400 1168.5882
21.8500 1182.3296
21.8600 1227.2336
21.8700 1107.8208
21.8800 1115.6552
21.8900 1148.7940
21.9000 1340.6608
21.9100 1217.4082
21.9200 1460.9756
21.9300 1252.0156
21.9400 1069.5800
21.9500 1299.4084
21.9600 1495.0108
21.9700 1258.6906
21.9800 1219.1948
21.9900 1006.1046
22.0000 1214.3268
22.0100 1274.8608
22.0200 1341.9978
22.0300 1157.7252
22.0400 1358.8812
22.0500 1031.7486
22.0600 1379.9804
22.0700 1284.1164
22.0800 1316.6470
22.0900 1113.1056
22.1000 1377.0964
22.1100 1106.8496
22.1200 896.5426
22.1300 1020.3980
22.1400 1466.1970
22.1500 1316.0350
22.1600 1263.5468
22.1700 1608.8486
22.1800 1357.9598
22.1900 1340.8966
22.2000 1267.4442
22.2100 1169.9324
22.2200 1153.8796
22.2300 1348.2686
22.2400 1382.8688
22.2500 1337.4108
22.2600 930.8870
22.2700 1058.2352
22.2800 1163.4300
22.2900 1384.7846
22.3000 1218.0358
22.3100 1143.0070
22.3200 926.5538
22.3300 1284.0480
22.3400 1279.7520
22.3500 1183.2800
22.3600 1333.7238
22.3700 1242.6376
22.3800 1364.0320
22.3900 1327.2128
22.4000 1251.7844
22.4100 1581.9876
22.4200 1249.5112
22.4300 1419.6628
22.4400 1309.3236
22.4500 1468.4154
22.4600 1435.7560
22.4700 1388.3884
22.4800 1605.8912
22.4900 1550.2672
22.5000 2009.8656
22.5100 1754.0810
22.5200 1832.6584
22.5300 1837.1340
22.5400 1551.8582
22.5500 1640.0350
22.5600 1521.8180
22.5700 1469.8138
22.5800 1703.1570
22.5900 1349.2668
22.6000 1217.4354
22.6100 1475.3606
22.6200 1519.8288
22.6300 1654.3512
22.6400 1500.7860
22.6500 1625.8608
22.6600 1515.9456
22.6700 1435.7840
22.6800 1483.5552
22.6900 1386.9328
22.7000 1030.6820
22.7100 1485.3814
22.7200 1099.5934
22.7300 1174.5876
22.7400 1193.2864
22.7500 1576.5966
22.7600 1489.9720
22.7700 1203.6418
22.7800 1135.4210
22.7900 1023.0704
22.8000 1294.0452
22.8100 1469.6258
22.8200 1222.5524
22.8300 1525.0394
22.8400 1231.9736
22.8500 1431.0554
22.8600 1039.8232
22.8700 1397.4698
22.8800 1356.0640
22.8900 1133.1888
22.9000 1155.8582
22.9100 1237.0082
22.9200 1202.9020
22.9300 1281.2516
22.9400 1220.5354
22.9500 1267.2054
22.9600 1341.2442
22.9700 1220.5596
22.9800 1587.0076
22.9900 1304.6660
23.0000 1503.4452
23.0100 1037.3840
23.0200 1115.4680
23.0300 1422.8824
23.0400 932.3408
23.0500 1127.6036
23.0600 1225.1276
23.0700 1319.2308
23.0800 1138.0518
23.0900 1417.3932
23.1000 1235.0388
23.1100 1414.0856
23.1200 1525.2484
23.1300 1174.1194
23.1400 1125.3492
23.1500 1212.8190
23.1600 1209.9386
23.1700 1339.8188
23.1800 1517.0702
23.1900 1191.0888
23.2000 1442.7412
23.2100 973.0394
23.2200 1202.7238
23.2300 1357.6156
23.2400 1286.7080
23.2500 1213.5636
23.2600 1041.5788
23.2700 1603.4800
23.2800 1293.8434
23.2900 1222.6102
23.3000 1199.6846
23.3100 1446.9054
23.3200 1261.1198
23.3300 1388.2276
23.3400 1503.7876
23.3500 1228.5588
23.3600 1323.1410
23.3700 1183.7144
23.3800 1343.7334
23.3900 1417.5602
23.4000 1261.9356
23.4100 1308.6444
23.4200 1126.6170
23.4300 1081.4310
23.4400 1148.2392
23.4500 1328.4940
23.4600 1135.0372
23.4700 1335.8150
23.4800 1059.5718
23.4900 1546.0920
23.5000 1092.8476
23.5100 1083.8624
23.5200 1262.4922
23.5300 1158.5452
23.5400 1416.1398
23.5500 1241.1666
23.5600 1299.8206
23.5700 1569.4532
23.5800 1202.5938
23.5900 1160.0314
23.6000 1332.7368
23.6100 1304.0794
23.6200 1431.6928
23.6300 1331.8822
23.6400 1034.9592
23.6500 1336.6448
23.6600 1128.7334
23.6700 1324.6044
23.6800 1579.8288
23.6900 1381.3376
23.7000 1261.3752
23.7100 1511.0530
23.7200 1282.0644
23.7300 1386.3424
23.7400 1376.3108
23.7500 1530.6006
23.7600 1298.1450
23.7700 1130.7226
23.7800 1077.6766
23.7900 1626.1918
23.8000 1392.7974
23.8100 1249.5082
23.8200 1358.5778
23.8300 1193.2904
23.8400 1241.8538
23.8500 1276.6400
23.8600 1448.4152
23.8700 1239.1292
23.8800 1523.4256
23.8900 1609.3846
23.9000 1135.6718
23.9100 1438.2776
23.9200 1309.9376
23.9300 1283.4128
23.9400 1350.5606
23.9500 1735.0320
23.9600 1242.2360
23.9700 1478.1406
23.9800 1712.8904
23.9900 1526.9632
24.0000 1460.7118
24.0100 1702.0796
24.0200 1306.2360
24.0300 1205.4968
24.0400 1161.9022
24.0500 1430.5146
24.0600 1438.0568
24.0700 1267.1500
24.0800 1329.3708
24.0900 1359.2676
24.1000 1363.0584
24.1100 1202.4060
24.1200 1310.4406
24.1300 1254.9500
24.1400 1322.4278
24.1500 1526.4718
24.1600 1315.2066
24.1700 1219.5478
24.1800 1285.4856
24.1900 1353.5730
24.2000 1372.1854
24.2100 1392.7180
24.2200 1297.7420
24.2300 1391.5196
24.2400 1357.2486
24.2500 1397.1248
24.2600 1483.1206
24.2700 1338.2364
24.2800 1262.0710
24.2900 1065.7312
24.3000 1048.8758
24.3100 1252.5088
24.3200 1519.1048
24.3300 1425.4576
24.3400 1561.0758
24.3500 1338.9608
24.3600 1513.4372
24.3700 1306.9660
24.3800 1448.7428
24.3900 1596.1832
24.4000 1477.2072
24.4100 1405.3526
24.4200 1555.5410
24.4300 1421.2248
24.4400 1348.0782
24.4500 1740.2998
24.4600 1594.9312
24.4700 1614.9528
24.4800 1557.5044
24.4900 1849.7482
24.5000 1561.3526
24.5100 1640.6158
24.5200 2107.3946
24.5300 1716.0386
24.5400 1748.4064
24.5500 1663.0782
24.5600 1447.3094
24.5700 2432.0968
24.5800 2149.5976
24.5900 1997.4512
24.6000 2062.7562
24.6100 2368.5962
24.6200 2499.2580
24.6300 3090.5048
24.6400 3608.7034
24.6500 3509.2216
24.6600 4212.7956
24.6700 4367.7698
24.6800 5472.2000
24.6900 4831.9356
24.7000 5464.6764
24.7100 5756.1162
24.7200 5328.0598
24.7300 4949.3688
24.7400 4330.9342
24.7500 4491.2846
24.7600 4113.2518
24.7700 3864.8586
24.7800 3556.3790
24.7900 3305.7402
24.8000 2879.7636
24.8100 2861.4776
24.8200 2222.3898
24.8300 2637.9306
24.8400 2412.6832
24.8500 2311.4466
24.8600 1642.3478
24.8700 1851.6690
24.8800 1904.7636
24.8900 1840.0570
24.9000 2002.6878
24.9100 1767.9118
24.9200 2012.8744
24.9300 1449.5194
24.9400 1758.3334
24.9500 1559.9610
24.9600 1435.1440
24.9700 1462.8062
24.9800 1297.3178
24.9900 1397.8048
25.0000 1489.1352
25.0100 1570.0528
25.0200 1656.6496
25.0300 1730.3416
25.0400 1601.6740
25.0500 1358.4786
25.0600 1305.8452
25.0700 1599.2796
25.0800 1135.4240
25.0900 1007.8010
25.1000 1166.0962
25.1100 1479.1780
25.1200 1462.6782
25.1300 1074.4004
25.1400 1415.1932
25.1500 1444.9140
25.1600 1473.1482
25.1700 1172.2630
25.1800 1368.6362
25.1900 1222.8954
25.2000 1248.6500
25.2100 1148.1410
25.2200 1339.3778
25.2300 1630.3778
25.2400 1273.4200
25.2500 1536.7496
25.2600 1582.6148
25.2700 1117.0790
25.2800 1455.9856
25.2900 1430.9362
25.3000 1682.4474
25.3100 1474.9470
25.3200 1496.4088
25.3300 1492.1776
25.3400 1839.3242
25.3500 1635.6474
25.3600 1340.9150
25.3700 1375.1786
25.3800 1369.1680
25.3900 1570.0426
25.4000 1189.9866
25.4100 1541.9490
25.4200 1579.3792
25.4300 1306.5040
25.4400 1252.3378
25.4500 1512.8440
25.4600 1252.7702
25.4700 1347.7568
25.4800 1431.6304
25.4900 1449.6126
25.5000 1397.3770
25.5100 1351.1850
25.5200 1341.6066
25.5300 1313.5492
25.5400 1438.7154
25.5500 1602.5290
25.5600 1357.9442
25.5700 1813.7194
25.5800 1728.7688
25.5900 1188.3978
25.6000 1221.2520
25.6100 1069.1432
25.6200 1133.8376
25.6300 1414.7638
25.6400 1514.4274
25.6500 1468.9540
25.6600 1534.3838
25.6700 1639.1712
25.6800 1606.7990
25.6900 1591.4386
25.7000 982.7180
25.7100 1522.7142
25.7200 1305.3502
25.7300 1289.6088
25.7400 1410.8066
25.7500 1260.7026
25.7600 1238.3694
25.7700 1410.8934
25.7800 1416.2374
25.7900 1225.1364
25.8000 1303.6108
25.8100 1474.6626
25.8200 1552.3598
25.8300 1684.8978
25.8400 1378.9094
25.8500 1373.5468
25.8600 1303.7548
25.8700 1423.6590
25.8800 1415.4388
25.8900 1313.1908
25.9000 1413.3088
25.9100 1281.7124
25.9200 1223.6908
25.9300 1510.6678
25.9400 1020.6056
25.9500 1339.6780
25.9600 1479.7748
25.9700 1664.1650
25.9800 1575.7640
25.9900 1478.7434
26.0000 1412.0374
26.0100 1643.6184
26.0200 1504.6792
26.0300 1435.4668
26.0400 1422.6942
26.0500 1314.6256
26.0600 1333.2804
26.0700 1396.9848
26.0800 1453.8904
26.0900 1278.4598
26.1000 1225.3142
26.1100 1353.8938
26.1200 907.2980
26.1300 1380.8884
26.1400 1375.1086
26.1500 1575.8624
26.1600 1075.1120
26.1700 1596.3812
26.1800 1399.7934
26.1900 1462.0102
26.2000 1470.9808
26.2100 1162.9588
26.2200 1432.7990
26.2300 1308.4350
26.2400 1364.9684
26.2500 1341.7350
26.2600 1550.8690
26.2700 1174.8292
26.2800 1259.0766
26.2900 1499.0076
26.3000 1559.8266
26.3100 1464.4818
26.3200 1361.6624
26.3300 1624.3976
26.3400 1678.8118
26.3500 1372.8122
26.3600 1264.6834
26.3700 1208.8870
26.3800 1078.6908
26.3900 1477.8826
26.4000 1455.0240
26.4100 1460.0574
26.4200 1726.1470
26.4300 1281.1036
26.4400 1514.9612
26.4500 1329.9524
26.4600 1337.5278
26.4700 1408.9844
26.4800 1436.7174
26.4900 1485.9840
26.5000 1212.7602
26.5100 1403.6884
26.5200 1626.1066
26.5300 1561.2600
26.5400 1578.5278
26.5500 1404.2026
26.5600 1636.2510
26.5700 1274.9656
26.5800 1269.8632
26.5900 1229.5562
26.6000 1223.2298
26.6100 1314.0694
26.6200 1337.5662
26.6300 1615.6204
26.6400 1297.4572
26.6500 1552.0482
26.6600 1245.9046
26.6700 1417.2888
26.6800 1509.5014
26.6900 1602.5044
26.7000 1814.0144
26.7100 1874.0336
26.7200 1386.8712
26.7300 1956.6562
26.7400 1584.2398
26.7500 1814.7704
26.7600 1881.8074
26.7700 1603.2694
26.7800 1815.5550
26.7900 1310.8700
26.8000 1550.2354
26.8100 1319.9724
26.8200 1364.6410
26.8300 1198.7122
26.8400 1575.2638
26.8500 1396.2810
26.8600 1454.0540
26.8700 1430.4410
26.8800 1387.4616
26.8900 1457.2940
26.9000 1307.4142
26.9100 1384.4846
26.9200 1559.1520
26.9300 1234.5418
26.9400 1304.6638
26.9500 1235.9646
26.9600 1170.2532
26.9700 1376.5298
26.9800 1612.6348
26.9900 1327.5370
27.0000 1363.7430
27.0100 1727.2348
27.0200 1455.1888
27.0300 1505.6120
27.0400 1475.4784
27.0500 1469.8124
27.0600 1541.2314
27.0700 1398.2796
27.0800 1893.4882
27.0900 1612.5754
27.1000 1399.2776
27.1100 1468.3082
27.1200 1654.5506
27.1300 1282.2032
27.1400 1364.8600
27.1500 1295.6792
27.1600 1271.5408
27.1700 1218.1620
27.1800 1340.6038
27.1900 1550.0650
27.2000 1858.9954
27.2100 1332.7994
27.2200 1720.6808
27.2300 1398.9902
27.2400 1330.5232
27.2500 1526.5926
27.2600 1444.7692
27.2700 1548.6682
27.2800 1615.6966
27.2900 1819.4714
27.3000 1558.1300
27.3100 1894.2482
27.3200 1665.2208
27.3300 1682.3024
27.3400 1756.2194
27.3500 1731.7348
27.3600 1396.5312
27.3700 1939.9068
27.3800 1693.1958
27.3900 1751.0636
27.4000 1564.3876
27.4100 1403.2596
27.4200 1274.2998
27.4300 1991.2940
27.4400 1463.8050
27.4500 1459.2596
27.4600 1447.3466
27.4700 1825.2544
27.4800 1746.6852
27.4900 1450.3524
27.5000 1242.5430
27.5100 1579.1498
27.5200 1325.5510
27.5300 1366.5642
27.5400 1397.0044
27.5500 1342.5348
27.5600 1859.1572
27.5700 1937.0994
27.5800 1403.0172
27.5900 1291.4720
27.6000 1566.5598
27.6100 1533.1102
27.6200 1431.6608
27.6300 1521.7562
27.6400 1395.7770
27.6500 1474.2872
27.6600 1127.4862
27.6700 1684.0390
27.6800 1512.6748
27.6900 1295.6768
27.7000 1648.0532
27.7100 1459.1190
27.7200 1456.1198
27.7300 1591.0962
27.7400 1434.9302
27.7500 1432.1684
27.7600 1239.3372
27.7700 1377.5666
27.7800 1354.4966
27.7900 1624.4890
27.8000 1148.4050
27.8100 1279.4646
27.8200 1469.9010
27.8300 1762.9594
27.8400 1622.1876
27.8500 1430.7524
27.8600 1491.4110
27.8700 1275.4994
27.8800 1406.2016
27.8900 1273.0706
27.9000 1538.9350
27.9100 1349.0244
27.9200 1357.6848
27.9300 1398.9064
27.9400 1400.5296
27.9500 1764.3158
27.9600 1583.3868
27.9700 1604.5686
27.9800 1480.9694
27.9900 1469.5390
28.0000 1556.3416
28.0100 1564.5460
28.0200 1369.9708
28.0300 1574.4458
28.0400 1687.5804
28.0500 1371.1232
28.0600 1375.1472
28.0700 1402.3274
28.0800 1545.2294
28.0900 1785.3366
28.1000 1568.7486
28.1100 1676.7426
28.1200 1354.6560
28.1300 1973.9780
28.1400 1514.9008
28.1500 1615.4560
28.1600 1604.5162
28.1700 1624.3854
28.1800 1514.1010
28.1900 1740.1934
28.2000 1759.9378
28.2100 1881.8600
28.2200 1364.4678
28.2300 1550.4292
28.2400 1830.6660
28.2500 1735.2570
28.2600 1517.0262
28.2700 1701.5064
28.2800 1859.4618
28.2900 1949.2472
28.3000 2042.4996
28.3100 2416.2898
28.3200 2269.1390
28.3300 2077.6466
28.3400 2323.0216
28.3500 2293.1920
28.3600 2422.2910
28.3700 2463.4794
28.3800 2836.1898
28.3900 3165.2394
28.4000 2659.1420
28.4100 3005.8564
28.4200 3343.7884
28.4300 3085.7038
28.4400 3756.9574
28.4500 4234.2540
28.4600 3756.1848
28.4700 4678.3514
28.4800 4885.3078
28.4900 5507.7438
28.5000 7186.8840
28.5100 7525.0458
28.5200 8895.7712
28.5300 9842.4246
28.5400 11728.4282
28.5500 15083.0464
28.5600 16979.6570
28.5700 18583.6202
28.5800 18286.1918
28.5900 19059.8226
28.6000 18080.8146
28.6100 16807.9326
28.6200 16704.3620
28.6300 16835.0046
28.6400 14273.8922
28.6500 14480.4922
28.6600 13224.6196
28.6700 12166.2516
28.6800 10712.5234
28.6900 9322.2728
28.7000 8222.2148
28.7100 8008.0022
28.7200 6658.6446
28.7300 5717.6610
28.7400 5029.6920
28.7500 4777.8020
28.7600 4507.9728
28.7700 4155.2066
28.7800 3858.3928
28.7900 3361.1600
28.8000 2943.8960
28.8100 3262.5134
28.8200 3011.2028
28.8300 2681.2604
28.8400 2261.6778
28.8500 2128.4780
28.8600 2353.6608
28.8700 2140.6202
28.8800 2280.1898
28.8900 1626.2736
28.9000 1994.6960
28.9100 2032.8118
28.9200 1942.1830
28.9300 1741.6872
28.9400 2029.9998
28.9500 2053.5114
28.9600 1943.4998
28.9700 1712.4436
28.9800 1692.9772
28.9900 1367.6570
29.0000 1575.8112
29.0100 1630.8928
29.0200 1564.6298
29.0300 1602.3812
29.0400 1762.9650
29.0500 1486.7438
29.0600 1938.9462
29.0700 1272.6950
29.0800 1418.5750
29.0900 1671.5562
29.1000 1796.3830
29.1100 1687.8426
29.1200 1492.6550
29.1300 1581.5676
29.1400 1712.9046
29.1500 1689.7662
29.1600 1418.3936
29.1700 1484.1710
29.1800 1254.7160
29.1900 1342.6958
29.2000 1420.3260
29.2100 1369.5590
29.2200 1609.0122
29.2300 1478.9114
29.2400 1308.7488
29.2500 1128.7536
29.2600 1323.6036
29.2700 1168.8404
29.2800 1286.0272
29.2900 1468.0686
29.3000 1268.5686
29.3100 1528.0804
29.3200 1274.3790
29.3300 1425.7716
29.3400 1687.4638
29.3500 1473.1850
29.3600 1465.6436
29.3700 1261.8974
29.3800 1505.4322
29.3900 1499.9782
29.4000 1435.6296
29.4100 1396.4922
29.4200 1414.3682
29.4300 1449.4908
29.4400 1429.7186
29.4500 1454.9404
29.4600 1476.8328
29.4700 1385.1516
29.4800 1471.7280
29.4900 1349.5884
29.5000 1602.4964
29.5100 1360.6674
29.5200 1293.4648
29.5300 1414.0174
29.5400 1529.1900
29.5500 1445.7466
29.5600 1183.4218
29.5700 1553.9420
29.5800 1175.6252
29.5900 1240.6008
29.6000 1422.1384
29.6100 1279.1426
29.6200 1215.2232
29.6300 1379.1222
29.6400 1223.7584
29.6500 1177.7478
29.6600 1514.3342
29.6700 1476.9858
29.6800 1413.3396
29.6900 1257.4456
29.7000 1401.0940
29.7100 1440.6448
29.7200 1526.2890
29.7300 1176.0340
29.7400 1340.7522
29.7500 1135.1620
29.7600 1572.4288
29.7700 1174.3180
29.7800 1234.1604
29.7900 1230.6578
29.8000 1106.6136
29.8100 838.6112
29.8200 1159.7980
29.8300 994.0614
29.8400 1235.4660
29.8500 1360.0448
29.8600 1425.6762
29.8700 1538.9576
29.8800 1387.1750
29.8900 1357.5688
29.9000 1123.4680
29.9100 1352.6850
29.9200 1430.3754
29.9300 1448.7696
29.9400 1599.7016
29.9500 1638.3916
29.9600 1462.7632
29.9700 1333.1634
29.9800 1267.3802
29.9900 1223.8928
30.0000 1367.6704
30.0100 1288.6696
30.0200 1533.5686
30.0300 1494.0460
30.0400 1621.1366
30.0500 1667.7158
30.0600 1575.0674
30.0700 1735.2670
30.0800 1737.2586
30.0900 1723.1300
30.1000 1748.8752
30.1100 1826.3202
30.1200 1665.3350
30.1300 1797.5388
30.1400 1430.6448
30.1500 1897.7308
30.1600 2079.8326
30.1700 2300.0794
30.1800 1793.4444
30.1900 1842.0914
30.2000 2279.5446
30.2100 2364.7764
30.2200 2037.0628
30.2300 2255.5536
30.2400 2122.3698
30.2500 2630.0774
30.2600 2427.5896
30.2700 2173.4960
30.2800 2615.8780
30.2900 2807.2086
30.3000 2508.3608
30.3100 2346.1518
30.3200 2727.9970
30.3300 2933.6386
30.3400 2622.2214
30.3500 2302.4234
30.3600 2443.0258
30.3700 2548.0234
30.3800 2683.8638
30.3900 2457.5832
30.4000 2424.3438
30.4100 2638.5070
30.4200 2664.1306
30.4300 3133.0608
30.4400 2128.2382
30.4500 2280.7042
30.4600 2655.0824
30.4700 2422.5064
30.4800 1926.0804
30.4900 1963.4318
30.5000 2213.9560
30.5100 1881.3884
30.5200 1990.8310
30.5300 2059.3550
30.5400 1850.9776
30.5500 1991.2766
30.5600 1677.4434
30.5700 1900.5630
30.5800 1670.5172
30.5900 2025.6382
30.6000 1853.7854
30.6100 1691.7160
30.6200 1933.3464
30.6300 1610.8556
30.6400 1506.5410
30.6500 1411.4986
30.6600 1693.3822
30.6700 1652.2108
30.6800 1478.1800
30.6900 1675.9778
30.7000 1628.9682
30.7100 1502.8830
30.7200 1439.6730
30.7300 1351.5866
30.7400 1282.3776
30.7500 1658.0862
30.7600 1417.9374
30.7700 1483.2986
30.7800 1602.2820
30.7900 1171.4684
30.8000 1320.8948
30.8100 1322.6064
30.8200 1542.7052
30.8300 1489.0510
30.8400 1418.3170
30.8500 1362.0352
30.8600 1584.4020
30.8700 1281.7034
30.8800 1325.3850
30.8900 1245.2628
30.9000 1474.5236
30.9100 1414.0582
30.9200 1684.3026
30.9300 1295.7320
30.9400 1262.4494
30.9500 1238.6082
30.9600 1225.8768
30.9700 1424.0022
30.9800 1287.9170
30.9900 1292.0628
31.0000 1215.0328
31.0100 1228.8828
31.0200 1222.8070
31.0300 1357.3044
31.0400 1410.8042
31.0500 1257.6330
31.0600 1399.2218
31.0700 1235.3792
31.0800 1291.3274
31.0900 1305.0664
31.1000 1213.1528
31.1100 1398.0504
31.1200 939.1544
31.1300 1398.8240
31.1400 1453.8494
31.1500 1397.7508
31.1600 1380.5912
31.1700 1478.2882
31.1800 1388.2288
31.1900 1119.4788
31.2000 1285.8480
31.2100 1364.1260
31.2200 1244.6854
31.2300 1315.4772
31.2400 1434.4248
31.2500 1623.2522
31.2600 1326.8264
31.2700 1385.5852
31.2800 1372.5808
31.2900 1467.4898
31.3000 1139.5126
31.3100 1057.6944
31.3200 1107.3808
31.3300 1130.7140
31.3400 1427.8578
31.3500 1503.3916
31.3600 1369.0238
31.3700 1489.5600
31.3800 1277.4000
31.3900 1323.9528
31.4000 1300.6028
31.4100 1045.0886
31.4200 1019.9548
31.4300 1250.8412
31.4400 1006.3080
31.4500 1433.6346
31.4600 1563.4188
31.4700 1140.5654
31.4800 1441.6254
31.4900 1296.9592
31.5000 1407.0242
31.5100 1302.6016
31.5200 1381.9882
31.5300 1190.5906
31.5400 1357.8590
31.5500 1252.6894
31.5600 1333.7696
31.5700 1840.6944
31.5800 1152.2036
31.5900 1497.1856
31.6000 1280.5590
31.6100 1263.1088
31.6200 1149.8966
31.6300 1503.6362
31.6400 1276.2234
31.6500 1436.6564
31.6600 1446.6808
31.6700 1281.9844
31.6800 1443.0008
31.6900 1603.2948
31.7000 1527.1072
31.7100 1487.2062
31.7200 1462.4444
31.7300 1329.8272
31.7400 1511.0766
31.7500 1678.2300
31.7600 1445.8380
31.7700 1526.8316
31.7800 1684.9076
31.7900 1649.9876
31.8000 2071.6646
31.8100 2114.5566
31.8200 1595.0308
31.8300 2102.7482
31.8400 2033.1888
31.8500 1867.7080
31.8600 2353.9560
31.8700 2496.0760
31.8800 2448.5392
31.8900 2659.6354
31.9000 2592.3454
31.9100 3021.9760
31.9200 3518.4182
31.9300 3253.2934
31.9400 3871.5694
31.9500 4626.2970
31.9600 5260.3978
31.9700 5858.9930
31.9800 6817.5842
31.9900 8175.6632
32.0000 9805.2592
32.0100 11193.7632
32.0200 11704.8676
32.0300 12199.3134
32.0400 11712.9262
32.0500 11210.8622
32.0600 10887.7278
32.0700 10606.5328
32.0800 10101.2196
32.0900 9846.6664
32.1000 9230.2938
32.1100 8962.1500
32.1200 9550.1292
32.1300 7923.2860
32.1400 6576.4734
32.1500 6082.1310
32.1600 5367.2298
32.1700 4871.2590
32.1800 4050.4686
32.1900 3985.4366
32.2000 3654.1440
32.2100 3324.4434
32.2200 2598.5980
32.2300 2609.6388
32.2400 2765.9014
32.2500 2053.8392
32.2600 2132.1614
32.2700 1872.2608
32.2800 1925.9176
32.2900 1728.4392
32.3000 1998.0986
32.3100 1781.9714
32.3200 1813.7770
32.3300 1421.0174
32.3400 1835.8524
32.3500 1704.5448
32.3600 1682.9602
32.3700 1522.4284
32.3800 1794.5404
32.3900 1522.5930
32.4000 1214.6306
32.4100 1368.2928
32.4200 1164.1948
32.4300 1306.1950
32.4400 1078.5648
32.4500 1422.6844
32.4600 1182.8110
32.4700 1105.0704
32.4800 1236.5116
32.4900 1464.8156
32.5000 1216.0748
32.5100 1310.7888
32.5200 1244.0938
32.5300 1261.2802
32.5400 1341.8758
32.5500 1143.5758
32.5600 1213.2250
32.5700 1095.6278
32.5800 1032.8840
32.5900 1314.3402
32.6000 1269.3730
32.6100 1160.5014
32.6200 1072.7846
32.6300 1444.2750
32.6400 1225.6038
32.6500 1305.6958
32.6600 1133.5028
32.6700 1070.7140
32.6800 1048.2316
32.6900 1297.8446
32.7000 999.6144
32.7100 1157.9832
32.7200 1187.5912
32.7300 1152.6010
32.7400 1067.2556
32.7500 1081.8092
32.7600 1014.3358
32.7700 1209.2196
32.7800 1120.2930
32.7900 1229.2242
32.8000 1216.7110
32.8100 1171.5284
32.8200 1032.5378
32.8300 1023.3572
32.8400 1025.4270
32.8500 1554.2340
32.8600 1082.3798
32.8700 831.3858
32.8800 1489.1888
32.8900 1314.0576
32.9000 1097.7012
32.9100 1035.3428
32.9200 1411.0572
32.9300 1258.2110
32.9400 1146.7862
32.9500 1071.5166
32.9600 938.8238
32.9700 1145.7398
32.9800 962.6452
32.9900 1219.4036
33.0000 1256.9442
33.0100 1046.8512
33.0200 868.8562
33.0300 825.8386
33.0400 1006.4540
33.0500 1097.2588
33.0600 1051.2486
33.0700 1049.1558
33.0800 1017.6552
33.0900 992.2934
33.1000 1132.4976
33.1100 1091.5816
33.1200 990.6906
33.1300 1097.0226
33.1400 1001.1540
33.1500 1267.4826
33.1600 976.6066
33.1700 1138.4596
33.1800 964.3558
33.1900 1219.9256
33.2000 1371.8006
33.2100 802.2488
33.2200 1105.5906
33.2300 1179.6830
33.2400 1197.8730
33.2500 1320.8058
33.2600 1258.1256
33.2700 999.1414
33.2800 901.6752
33.2900 1334.3632
33.3000 1213.8490
33.3100 1067.2740
33.3200 814.7986
33.3300 1074.4132
33.3400 1338.3640
33.3500 1017.5136
33.3600 1245.6708
33.3700 1267.8174
33.3800 1130.1302
33.3900 1211.6170
33.4000 1104.0318
33.4100 1217.3824
33.4200 908.1594
33.4300 1254.0488
33.4400 1234.8848
33.4500 1064.8328
33.4600 1220.5164
33.4700 748.3520
33.4800 1162.4404
33.4900 1007.9566
33.5000 1067.1072
33.5100 723.0044
33.5200 1034.2040
33.5300 1128.4278
33.5400 1271.9922
33.5500 1030.1360
33.5600 976.9494
33.5700 935.1420
33.5800 825.2850
33.5900 1347.4534
33.6000 1089.2300
33.6100 1131.1574
33.6200 1314.4588
33.6300 1151.7244
33.6400 924.1550
33.6500 985.3958
33.6600 1146.7638
33.6700 1229.6354
33.6800 796.9988
33.6900 943.7622
33.7000 1071.3708
33.7100 1073.5928
33.7200 1059.6014
33.7300 1113.2882
33.7400 831.2188
33.7500 915.2838
33.7600 941.0732
33.7700 1268.7596
33.7800 977.9826
33.7900 912.8612
33.8000 1057.6310
33.8100 866.9002
33.8200 1056.2746
33.8300 1235.6806
33.8400 1035.2878
33.8500 1175.8086
33.8600 1073.5616
33.8700 1087.8022
33.8800 1186.9822
33.8900 1200.0316
33.9000 1099.2778
33.9100 1287.9834
33.9200 1110.6014
33.9300 805.4786
33.9400 922.3602
33.9500 1112.8210
33.9600 789.5106
33.9700 832.7868
33.9800 1172.2946
33.9900 994.9848
34.0000 958.0142
34.0100 1000.7780
34.0200 904.7238
34.0300 1038.2664
34.0400 1038.1464
34.0500 874.7202
34.0600 844.8128
34.0700 744.9792
34.0800 882.6282
34.0900 871.5552
34.1000 896.4418
34.1100 855.2526
34.1200 1034.4316
34.1300 1100.2392
34.1400 1101.5670
34.1500 970.5870
34.1600 1160.8826
34.1700 1146.3248
34.1800 1107.7198
34.1900 1129.5562
34.2000 885.9618
34.2100 862.9760
34.2200 1124.0504
34.2300 1038.3708
34.2400 877.3064
34.2500 833.3674
34.2600 808.7992
34.2700 880.9544
34.2800 968.6088
34.2900 1266.0912
34.3000 982.4060
34.3100 1134.6116
34.3200 1077.4888
34.3300 1034.4954
34.3400 1071.1916
34.3500 865.6540
34.3600 916.1390
34.3700 1182.1024
34.3800 683.0408
34.3900 861.9708
34.4000 926.1080
34.4100 997.8842
34.4200 861.9092
34.4300 1029.8280
34.4400 811.3288
34.4500 962.4384
34.4600 890.4994
34.4700 865.6320
34.4800 907.3720
34.4900 944.9788
34.5000 1098.5238
34.5100 830.8714
34.5200 944.9618
34.5300 1021.0400
34.5400 1347.6126
34.5500 987.2714
34.5600 1169.5036
34.5700 820.0250
34.5800 1097.2212
34.5900 1204.9074
34.6000 746.5512
34.6100 1107.8156
34.6200 1159.4844
34.6300 853.9852
34.6400 1108.6210
34.6500 1214.6888
34.6600 999.5348
34.6700 1121.2582
34.6800 1002.5996
34.6900 763.8818
34.7000 1109.3158
34.7100 929.8164
34.7200 919.6462
34.7300 1143.1588
34.7400 894.0066
34.7500 1028.1886
34.7600 1114.7202
34.7700 1161.9844
34.7800 918.7084
34.7900 929.2512
34.8000 1013.5576
34.8100 920.6556
34.8200 1106.5660
34.8300 908.0792
34.8400 1191.8966
34.8500 1116.8254
34.8600 1079.2130
34.8700 1216.8612
34.8800 1126.4812
34.8900 1286.6790
34.9000 977.4320
34.9100 1296.1482
34.9200 979.9232
34.9300 975.8552
34.9400 1033.0338
34.9500 1203.6740
34.9600 1283.2736
34.9700 1087.9956
34.9800 897.4226
34.9900 1345.3306
35.0000 1146.0768
35.0100 1365.6134
35.0200 859.1808
35.0300 1314.4592
35.0400 1493.9610
35.0500 1707.0360
35.0600 1585.8518
35.0700 1449.4516
35.0800 1734.3820
35.0900 1622.2722
35.1000 1947.4816
35.1100 2345.8308
35.1200 2142.5520
35.1300 2427.7980
35.1400 3139.5174
35.1500 3236.1946
35.1600 3491.1782
35.1700 3650.9514
35.1800 4191.8590
35.1900 3903.0132
35.2000 3977.4462
35.2100 3828.8458
35.2200 4166.8912
35.2300 4019.8916
35.2400 3661.8800
35.2500 4053.9884
35.2600 4090.4742
35.2700 3819.3724
35.2800 3448.1618
35.2900 3601.3224
35.3000 3665.2838
35.3100 3250.4984
35.3200 3259.9918
35.3300 3046.6060
35.3400 2599.0850
35.3500 2662.1668
35.3600 2605.0146
35.3700 1976.9700
35.3800 2096.5054
35.3900 1965.2330
35.4000 2160.4222
35.4100 1907.7706
35.4200 1579.3188
35.4300 1565.4192
35.4400 1580.1752
35.4500 1351.9062
35.4600 1500.6530
35.4700 1248.7022
35.4800 1322.5410
35.4900 1355.9984
35.5000 1287.4758
35.5100 1025.2866
35.5200 1173.4386
35.5300 1383.7152
35.5400 1040.8628
35.5500 1069.2028
35.5600 1075.4278
35.5700 903.6862
35.5800 1054.4624
35.5900 906.7706
35.6000 794.3472
35.6100 972.7626
35.6200 956.0530
35.6300 871.5888
35.6400 744.0884
35.6500 1113.7246
35.6600 955.4144
35.6700 825.5724
35.6800 1200.1952
35.6900 1084.5096
35.7000 1240.8158
35.7100 832.2258
35.7200 1119.7488
35.7300 1098.9020
35.7400 1137.9424
35.7500 978.3086
35.7600 928.4044
35.7700 868.3956
35.7800 819.9100
35.7900 1119.1778
35.8000 1229.4330
35.8100 886.0412
35.8200 1134.6286
35.8300 1069.0802
35.8400 1300.2296
35.8500 1007.8894
35.8600 973.1692
35.8700 965.4074
35.8800 854.5602
35.8900 780.8338
35.9000 1186.5782
35.9100 877.0850
35.9200 790.8354
35.9300 789.7784
35.9400 785.4460
35.9500 777.5494
35.9600 852.2888
35.9700 868.5254
35.9800 969.1272
35.9900 1030.9894
36.0000 838.3122
36.0100 1035.2236
36.0200 911.9876
36.0300 902.9496
36.0400 897.5040
36.0500 780.9326
36.0600 785.7008
36.0700 925.1242
36.0800 960.4338
36.0900 1201.0808
36.1000 850.5276
36.1100 1098.8392
36.1200 956.8836
36.1300 1008.6694
36.1400 672.2018
36.1500 921.9432
36.1600 881.0850
36.1700 897.3586
36.1800 753.9644
36.1900 1012.2534
36.2000 932.5668
36.2100 775.0010
36.2200 1066.2812
36.2300 758.6242
36.2400 873.5348
36.2500 689.0224
36.2600 827.2880
36.2700 1184.9210
36.2800 882.2578
36.2900 809.5406
36.3000 850.8518
36.3100 675.1216
36.3200 742.6414
36.3300 764.5974
36.3400 1015.6114
36.3500 965.6138
36.3600 661.5336
36.3700 1218.1828
36.3800 822.1538
36.3900 766.3574
36.4000 938.3420
36.4100 831.0410
36.4200 903.2256
36.4300 680.9696
36.4400 935.8846
36.4500 739.4658
36.4600 925.7522
36.4700 722.0528
36.4800 739.4838
36.4900 761.8194
36.5000 940.7502
36.5100 706.8506
36.5200 825.2294
36.5300 778.9190
36.5400 695.6874
36.5500 939.4276
36.5600 800.9264
36.5700 919.8452
36.5800 834.8950
36.5900 912.9778
36.6000 1152.3250
36.6100 933.4584
36.6200 864.5656
36.6300 807.7466
36.6400 764.0750
36.6500 773.9110
36.6600 836.4542
36.6700 906.7068
36.6800 933.5388
36.6900 771.8948
36.7000 1093.7582
36.7100 861.0702
36.7200 1267.5580
36.7300 1227.0834
36.7400 899.1878
36.7500 1164.5272
36.7600 1162.6188
36.7700 846.7040
36.7800 736.5366
36.7900 1230.8360
36.8000 899.2186
36.8100 1112.0414
36.8200 1079.6888
36.8300 935.0106
36.8400 1015.8872
36.8500 886.8722
36.8600 770.0612
36.8700 1061.6742
36.8800 815.9442
36.8900 983.3100
36.9000 965.7442
36.9100 964.5584
36.9200 1259.1162
36.9300 872.1106
36.9400 688.2612
36.9500 791.9932
36.9600 831.9854
36.9700 746.9178
36.9800 728.6924
36.9900 682.2366
37.0000 768.7920
37.0100 830.2476
37.0200 998.7730
37.0300 779.8302
37.0400 762.2552
37.0500 701.7158
37.0600 761.3698
37.0700 700.8772
37.0800 705.4280
37.0900 702.2432
37.1000 695.9598
37.1100 751.4296
37.1200 669.4162
37.1300 814.5032
37.1400 615.6646
37.1500 881.4878
37.1600 701.4406
37.1700 676.1342
37.1800 842.7496
37.1900 640.8798
37.2000 944.7100
37.2100 651.1804
37.2200 1008.7296
37.2300 934.5580
37.2400 983.1816
37.2500 1030.1132
37.2600 756.3472
37.2700 587.2370
37.2800 738.1218
37.2900 797.0244
37.3000 1029.2124
37.3100 799.4402
37.3200 1062.6510
37.3300 790.0684
37.3400 611.8362
37.3500 900.4190
37.3600 971.2464
37.3700 843.2772
37.3800 941.9866
37.3900 1064.0946
37.4000 1021.3540
37.4100 1037.4400
37.4200 897.9738
37.4300 947.1418
37.4400 1194.9578
37.4500 1122.2878
37.4600 1129.4990
37.4700 701.9160
37.4800 1130.7484
37.4900 979.2606
37.5000 1227.8976
37.5100 941.6374
37.5200 796.5978
37.5300 902.2748
37.5400 875.0450
37.5500 1136.1390
37.5600 1134.6506
37.5700 655.0730
37.5800 884.0178
37.5900 870.0136
37.6000 1152.6108
37.6100 638.0074
37.6200 890.6110
37.6300 864.6312
37.6400 824.5166
37.6500 913.9410
37.6600 828.4588
37.6700 763.5648
37.6800 747.7550
37.6900 726.9184
37.7000 861.5736
37.7100 758.4830
37.7200 1015.7506
37.7300 873.8100
37.7400 874.3366
37.7500 654.7026
37.7600 824.9454
37.7700 945.7492
37.7800 743.2906
37.7900 842.5274
37.8000 874.2558
37.8100 537.9384
37.8200 657.3098
37.8300 670.5732
37.8400 801.9658
37.8500 837.5694
37.8600 835.0402
37.8700 771.3512
37.8800 715.9454
37.8900 886.1858
37.9000 973.7762
37.9100 694.3106
37.9200 812.6572
37.9300 798.7558
37.9400 639.2150
37.9500 610.2296
37.9600 602.1402
37.9700 660.0490
37.9800 751.5824
37.9900 793.9554
38.0000 728.1750
38.0100 633.0246
38.0200 705.3932
38.0300 697.8400
38.0400 500.3370
38.0500 643.1494
38.0600 816.8220
38.0700 835.8232
38.0800 862.5386
38.0900 504.5788
38.1000 792.5972
38.1100 689.5006
38.1200 902.8438
38.1300 687.1196
38.1400 897.4620
38.1500 1010.2266
38.1600 794.4666
38.1700 893.2946
38.1800 841.3604
38.1900 820.8758
38.2000 845.2788
38.2100 726.9940
38.2200 824.5480
38.2300 711.6482
38.2400 745.8698
38.2500 720.3460
38.2600 806.2452
38.2700 848.0986
38.2800 1046.6454
38.2900 935.1746
38.3000 913.7318
38.3100 530.8118
38.3200 999.6146
38.3300 899.4154
38.3400 851.1192
38.3500 712.8126
38.3600 773.7174
38.3700 688.4480
38.3800 650.3290
38.3900 592.5586
38.4000 755.3460
38.4100 820.9112
38.4200 763.6094
38.4300 760.6644
38.4400 788.7934
38.4500 759.6832
38.4600 926.8576
38.4700 612.5388
38.4800 703.8458
38.4900 674.6754
38.5000 761.0618
38.5100 897.5200
38.5200 833.2500
38.5300 560.7498
38.5400 943.8044
38.5500 744.3654
38.5600 702.0092
38.5700 756.9076
38.5800 977.0018
38.5900 1074.9518
38.6000 774.4970
38.6100 953.5992
38.6200 831.3152
38.6300 906.3668
38.6400 1033.2006
38.6500 833.0146
38.6600 1148.2602
38.6700 1118.3962
38.6800 1170.0998
38.6900 891.4504
38.7000 882.0728
38.7100 1010.6864
38.7200 760.9136
38.7300 905.1308
38.7400 786.1868
38.7500 960.1156
38.7600 731.7720
38.7700 778.0382
38.7800 865.3512
38.7900 811.8834
38.8000 828.6642
38.8100 1083.6790
38.8200 732.5148
38.8300 690.6830
38.8400 907.2222
38.8500 853.5918
38.8600 988.4270
38.8700 800.6656
38.8800 1046.0110
38.8900 728.3014
38.9000 850.3688
38.9100 931.0040
38.9200 828.4030
38.9300 889.8456
38.9400 924.6552
38.9500 985.0878
38.9600 1052.2892
38.9700 1252.3018
38.9800 851.1920
38.9900 656.5358
39.0000 716.7380
39.0100 631.4836
39.0200 796.6588
39.0300 744.1058
39.0400 603.1476
39.0500 880.4860
39.0600 619.2674
39.0700 695.2452
39.0800 748.9910
39.0900 964.7758
39.1000 1011.1078
39.1100 922.1940
39.1200 577.1656
39.1300 707.4630
39.1400 987.0994
39.1500 625.0434
39.1600 735.1978
39.1700 801.2446
39.1800 719.0170
39.1900 845.4682
39.2000 791.0126
39.2100 910.9478
39.2200 925.9508
39.2300 791.5852
39.2400 786.0466
39.2500 742.0722
39.2600 898.0500
39.2700 1013.0282
39.2800 896.8602
39.2900 790.1896
39.3000 896.1512
39.3100 791.5274
39.3200 827.9376
39.3300 748.3788
39.3400 803.6538
39.3500 628.9108
39.3600 888.6324
39.3700 846.3642
39.3800 690.1828
39.3900 829.9910
39.4000 930.8120
39.4100 500.2942
39.4200 690.4770
39.4300 788.1228
39.4400 689.7360
39.4500 976.1706
39.4600 1088.8132
39.4700 787.7374
39.4800 944.2174
39.4900 780.0046
39.5000 845.9452
39.5100 699.9194
39.5200 877.7990
39.5300 787.2754
39.5400 598.0144
39.5500 703.3302
39.5600 1014.9530
39.5700 946.0926
39.5800 1111.3316
39.5900 758.5422
39.6000 837.6534
39.6100 1026.6364
39.6200 845.5738
39.6300 864.4720
39.6400 875.4184
39.6500 840.2486
39.6600 884.0858
39.6700 601.3210
39.6800 861.6574
39.6900 871.3140
39.7000 708.2428
39.7100 1167.4018
39.7200 1348.6454
39.7300 872.1654
39.7400 1070.2382
39.7500 1030.1096
39.7600 851.5046
39.7700 876.7740
39.7800 989.9438
39.7900 1099.8096
39.8000 882.3642
39.8100 979.0122
39.8200 812.0174
39.8300 846.0910
39.8400 776.2280
39.8500 585.7892
39.8600 767.2860
39.8700 913.4962
39.8800 1053.4426
39.8900 794.6634
39.9000 680.4542
39.9100 789.1988
39.9200 804.1234
39.9300 665.1230
39.9400 762.9202
39.9500 718.9244
39.9600 757.6568
39.9700 897.2122
39.9800 890.4286
39.9900 841.5338
40.0000 852.7116
40.0100 789.8188
40.0200 781.7442
40.0300 764.0816
40.0400 819.3510
40.0500 1026.2988
40.0600 916.9842
40.0700 639.0034
40.0800 758.6040
40.0900 625.9646
40.1000 711.9880
40.1100 950.8960
40.1200 1043.7634
40.1300 768.2568
40.1400 892.2434
40.1500 723.1822
40.1600 975.4458
40.1700 966.1732
40.1800 960.1080
40.1900 1069.4030
40.2000 793.2764
40.2100 852.5766
40.2200 850.8218
40.2300 951.7956
40.2400 874.8508
40.2500 852.9668
40.2600 1016.8932
40.2700 783.2780
40.2800 951.9370
40.2900 1013.2686
40.3000 957.3790
40.3100 894.6998
40.3200 864.8356
40.3300 925.4280
40.3400 952.7376
40.3500 1064.0950
40.3600 1102.2350
40.3700 897.5088
40.3800 830.5590
40.3900 683.4948
40.4000 1006.6050
40.4100 902.2652
40.4200 925.7814
40.4300 908.7502
40.4400 812.1510
40.4500 1074.3680
40.4600 669.9964
40.4700 1055.7404
40.4800 957.0262
40.4900 859.0336
40.5000 1060.3314
40.5100 1015.5324
40.5200 1165.1200
40.5300 1011.9026
40.5400 1041.2900
40.5500 1160.0044
40.5600 1154.0270
40.5700 1128.7340
40.5800 1298.0680
40.5900 1265.1504
40.6000 1076.3886
40.6100 1482.1560
40.6200 1422.4212
40.6300 1559.0648
40.6400 1091.6078
40.6500 1330.9420
40.6600 1366.1754
40.6700 1278.1186
40.6800 1637.8778
40.6900 1615.8528
40.7000 1842.8688
40.7100 1639.6652
40.7200 2004.7592
40.7300 2269.1566
40.7400 2736.5776
40.7500 2624.7924
40.7600 2983.6482
40.7700 3913.1052
40.7800 3502.4308
40.7900 4879.8100
40.8000 5015.6214
40.8100 5796.3572
40.8200 7571.5902
40.8300 7313.8006
40.8400 6704.3736
40.8500 7086.3078
40.8600 6853.8452
40.8700 7350.8900
40.8800 6179.6366
40.8900 5917.0756
40.9000 5615.6026
40.9100 5725.2466
40.9200 5550.0270
40.9300 5365.2150
40.9400 4963.4506
40.9500 5353.3076
40.9600 5121.8556
40.9700 5089.5706
40.9800 4257.3792
40.9900 3701.9794
41.0000 3528.0476
41.0100 3303.7674
41.0200 2978.2066
41.0300 2916.2972
41.0400 2767.4672
41.0500 2245.3250
41.0600 1868.2178
41.0700 1905.8584
41.0800 1741.3972
41.0900 1772.0226
41.1000 1710.7358
41.1100 1482.8040
41.1200 1391.4274
41.1300 1257.5014
41.1400 1124.5418
41.1500 1357.2732
41.1600 1168.1424
41.1700 1136.9544
41.1800 1379.1394
41.1900 1134.1532
41.2000 1341.9292
41.2100 874.8702
41.2200 1300.7508
41.2300 1214.8360
41.2400 951.0804
41.2500 1147.0456
41.2600 1141.4226
41.2700 1132.6288
41.2800 1015.6200
41.2900 917.3494
41.3000 1329.0416
41.3100 736.6240
41.3200 969.8346
41.3300 713.7712
41.3400 798.2942
41.3500 1036.0766
41.3600 896.4798
41.3700 866.6648
41.3800 763.7816
41.3900 928.5004
41.4000 914.8120
41.4100 1118.9188
41.4200 986.6562
41.4300 997.4892
41.4400 925.9894
41.4500 768.5270
41.4600 1051.4454
41.4700 1071.0704
41.4800 902.9912
41.4900 975.1318
41.5000 1063.2626
41.5100 1181.2774
41.5200 990.3620
41.5300 1163.9568
41.5400 1141.1324
41.5500 1021.6930
41.5600 1079.1058
41.5700 1004.6952
41.5800 877.5070
41.5900 967.7886
41.6000 790.3782
41.6100 995.7394
41.6200 884.5298
41.6300 974.6132
41.6400 1165.4030
41.6500 955.8706
41.6600 964.1466
41.6700 953.9972
41.6800 1238.0240
41.6900 1091.7932
41.7000 914.5870
41.7100 732.0742
41.7200 987.4152
41.7300 784.2532
41.7400 974.3310
41.7500 1307.0254
41.7600 1222.3314
41.7700 1019.2790
41.7800 873.6588
41.7900 852.7344
41.8000 921.5474
41.8100 903.3772
41.8200 973.4856
41.8300 1150.8440
41.8400 1123.1924
41.8500 964.1472
41.8600 842.5248
41.8700 975.0296
41.8800 845.9946
41.8900 867.6262
41.9000 1095.5766
41.9100 988.0086
41.9200 1033.7928
41.9300 1026.8154
41.9400 1305.3546
41.9500 812.9626
41.9600 823.7890
41.9700 714.7758
41.9800 910.0854
41.9900 919.6994
42.0000 985.5450
42.0100 1044.9044
42.0200 863.2754
42.0300 891.2910
42.0400 930.0876
42.0500 1120.0314
42.0600 850.1044
42.0700 1017.6266
42.0800 797.4488
42.0900 1124.2322
42.1000 933.8458
42.1100 953.9054
42.1200 1000.4516
42.1300 892.5850
42.1400 884.7064
42.1500 967.0700
42.1600 1370.5736
42.1700 1050.4262
42.1800 1139.4232
42.1900 814.2948
42.2000 811.2000
42.2100 956.1368
42.2200 1034.4022
42.2300 899.1894
42.2400 863.0476
42.2500 1144.6508
42.2600 1015.0274
42.2700 1078.1190
42.2800 1218.5680
42.2900 1022.2420
42.3000 970.8244
42.3100 926.2182
42.3200 824.4550
42.3300 993.5216
42.3400 638.8812
42.3500 904.0232
42.3600 816.3170
42.3700 761.4804
42.3800 705.8668
42.3900 777.0186
42.4000 805.2012
42.4100 817.2468
42.4200 643.3776
42.4300 926.5764
42.4400 897.7000
42.4500 793.8418
42.4600 779.8496
42.4700 1037.8766
42.4800 854.8698
42.4900 732.9232
42.5000 665.9832
42.5100 658.2630
42.5200 861.9034
42.5300 863.8944
42.5400 849.0232
42.5500 718.5192
42.5600 690.9304
42.5700 770.2670
42.5800 1045.3302
42.5900 485.2780
42.6000 659.8388
42.6100 730.7978
42.6200 992.4564
42.6300 962.6070
42.6400 887.1480
42.6500 992.3184
42.6600 761.7750
42.6700 831.7390
42.6800 1000.3990
42.6900 773.7370
42.7000 795.2898
42.7100 750.7564
42.7200 833.7032
42.7300 953.4138
42.7400 906.7762
42.7500 781.9808
42.7600 819.2638
42.7700 696.6644
42.7800 930.2754
42.7900 960.9844
42.8000 956.1886
42.8100 667.8326
42.8200 905.2572
42.8300 876.8682
42.8400 857.0906
42.8500 893.1432
42.8600 724.6130
42.8700 784.4946
42.8800 722.2324
42.8900 707.0620
42.9000 848.3360
42.9100 1005.3468
42.9200 666.4684
42.9300 935.9376
42.9400 680.3884
42.9500 915.7882
42.9600 911.5688
42.9700 903.4924
42.9800 835.5816
42.9900 741.1878
43.0000 1021.1770
43.0100 1017.6442
43.0200 911.9400
43.0300 629.8780
43.0400 1057.3552
43.0500 777.7820
43.0600 993.9230
43.0700 1032.9010
43.0800 1030.4914
43.0900 699.3242
43.1000 979.3880
43.1100 704.5760
43.1200 811.2652
43.1300 908.6210
43.1400 1078.2638
43.1500 914.3788
43.1600 651.0780
43.1700 1001.6780
43.1800 986.4702
43.1900 894.7294
43.2000 985.5560
43.2100 1008.9814
43.2200 930.0292
43.2300 1102.0202
43.2400 1210.6602
43.2500 1062.3814
43.2600 1220.9028
43.2700 986.0816
43.2800 1534.7808
43.2900 1344.8748
43.3000 1291.1974
43.3100 1242.3838
43.3200 1425.9132
43.3300 1680.6266
43.3400 1899.0242
43.3500 1501.0598
43.3600 1976.7914
43.3700 2006.6984
43.3800 2499.7622
43.3900 2577.6136
43.4000 2980.2380
43.4100 3948.2782
43.4200 3683.3244
43.4300 3947.3594
43.4400 3763.6594
43.4500 3510.6638
43.4600 3593.2674
43.4700 3655.3886
43.4800 3392.2018
43.4900 3190.6110
43.5000 2918.4660
43.5100 3025.7514
43.5200 3275.2678
43.5300 2753.3028
43.5400 2978.5414
43.5500 3195.3642
43.5600 2947.8340
43.5700 2313.9832
43.5800 2180.0456
43.5900 2382.3504
43.6000 2005.7806
43.6100 2131.9998
43.6200 1728.8188
43.6300 1901.9224
43.6400 1661.0184
43.6500 1366.6942
43.6600 1352.2202
43.6700 1411.9860
43.6800 1608.0656
43.6900 1348.2360
43.7000 1206.3284
43.7100 1307.9292
43.7200 1144.0380
43.7300 1017.4822
43.7400 1035.6674
43.7500 1240.1814
43.7600 1071.2038
43.7700 997.3554
43.7800 1311.6990
43.7900 972.3322
43.8000 631.0864
43.8100 1033.7322
43.8200 980.5928
43.8300 1065.4302
43.8400 882.8064
43.8500 884.0976
43.8600 757.9154
43.8700 868.7590
43.8800 937.4946
43.8900 1013.1550
43.9000 959.4598
43.9100 549.6132
43.9200 867.5274
43.9300 783.3566
43.9400 979.1492
43.9500 775.2982
43.9600 1018.8100
43.9700 900.1220
43.9800 916.4528
43.9900 712.1258
44.0000 909.9900
44.0100 744.7182
44.0200 952.7246
44.0300 851.6444
44.0400 1068.2292
44.0500 932.5478
44.0600 1002.9982
44.0700 569.9490
44.0800 752.6216
44.0900 1014.3848
44.1000 709.4348
44.1100 774.1100
44.1200 775.9706
44.1300 543.7884
44.1400 651.8300
44.1500 872.5832
44.1600 798.9056
44.1700 783.0528
44.1800 934.4512
44.1900 671.5348
44.2000 817.8840
44.2100 789.8816
44.2200 759.6590
44.2300 745.7804
44.2400 741.8932
44.2500 874.2528
44.2600 642.6814
44.2700 702.3524
44.2800 699.1158
44.2900 909.9794
44.3000 853.9944
44.3100 761.0318
44.3200 823.7048
44.3300 732.4062
44.3400 1004.9588
44.3500 803.6292
44.3600 769.3038
44.3700 1172.1562
44.3800 839.6514
44.3900 679.4122
44.4000 676.1154
44.4100 728.6234
44.4200 798.8208
44.4300 834.9988
44.4400 478.6496
44.4500 740.3098
44.4600 846.4372
44.4700 778.2042
44.4800 909.2458
44.4900 792.0380
44.5000 650.1716
44.5100 686.4330
44.5200 773.9266
44.5300 904.1126
44.5400 565.8800
44.5500 478.6742
44.5600 765.1082
44.5700 988.0072
44.5800 795.6058
44.5900 838.8574
44.6000 688.0616
44.6100 793.7804
44.6200 982.4410
44.6300 909.6544
44.6400 1024.0346
44.6500 844.6574
44.6600 934.9980
44.6700 703.0458
44.6800 1269.4266
44.6900 1114.5636
44.7000 1096.3606
44.7100 907.9120
44.7200 691.0308
44.7300 958.4716
44.7400 987.5572
44.7500 923.1602
44.7600 717.0388
44.7700 1044.4690
44.7800 810.7306
44.7900 659.8726
44.8000 722.5810
44.8100 584.9318
44.8200 902.2274
44.8300 786.8716
44.8400 758.2574
44.8500 928.1006
44.8600 774.0144
44.8700 1055.7398
44.8800 743.4564
44.8900 897.5142
44.9000 1031.7934
44.9100 933.1654
44.9200 855.0872
44.9300 974.6420
44.9400 879.2348
44.9500 1020.4502
44.9600 855.4242
44.9700 777.0374
44.9800 932.0792
44.9900 668.4882
45.0000 755.8308
45.0100 806.5874
45.0200 1247.8824
45.0300 784.6184
45.0400 738.0832
45.0500 809.6944
45.0600 924.8032
45.0700 685.7922
45.0800 936.1802
45.0900 784.0638
45.1000 767.3008
45.1100 1091.9026
45.1200 960.1224
45.1300 903.8678
45.1400 773.7292
45.1500 747.0658
45.1600 830.6228
45.1700 974.5692
45.1800 962.0572
45.1900 951.1810
45.2000 865.5806
45.2100 873.9766
45.2200 938.3236
45.2300 994.6770
45.2400 873.5808
45.2500 872.1808
45.2600 852.1556
45.2700 721.4354
45.2800 1042.7942
45.2900 1079.4906
45.3000 1156.7472
45.3100 1185.0954
45.3200 734.6520
45.3300 818.5212
45.3400 913.2636
45.3500 1342.8038
45.3600 1051.5492
45.3700 1101.0902
45.3800 1154.8006
45.3900 1241.2672
45.4000 1092.6336
45.4100 1002.8044
45.4200 1340.0610
45.4300 880.6606
45.4400 1026.5278
45.4500 1039.0498
45.4600 1070.7422
45.4700 978.2094
45.4800 865.1068
45.4900 854.6584
45.5000 786.0144
45.5100 891.7758
45.5200 583.4362
45.5300 836.9170
45.5400 667.0926
45.5500 691.7322
45.5600 891.6178
45.5700 827.7046
45.5800 785.9156
45.5900 616.7600
45.6000 653.1974
45.6100 935.4814
45.6200 709.4564
45.6300 1025.6816
45.6400 814.5606
45.6500 927.9774
45.6600 653.5224
45.6700 638.4162
45.6800 831.3706
45.6900 960.6026
45.7000 1026.7324
45.7100 743.9914
45.7200 840.8010
45.7300 906.0880
45.7400 811.2606
45.7500 845.3742
45.7600 727.8582
45.7700 719.8304
45.7800 976.6344
45.7900 864.0076
45.8000 985.1548
45.8100 760.4326
45.8200 669.5544
45.8300 1015.8938
45.8400 820.2260
45.8500 830.0012
45.8600 754.4426
45.8700 975.8814
45.8800 671.9148
45.8900 817.9252
45.9000 843.8248
45.9100 1096.0816
45.9200 819.8222
45.9300 1128.6062
45.9400 1013.9488
45.9500 868.4858
45.9600 1097.7054
45.9700 850.4048
45.9800 861.1130
45.9900 1057.7870
46.0000 1047.6186
46.0100 1342.8462
46.0200 858.7864
46.0300 1030.2594
46.0400 847.5954
46.0500 750.4166
46.0600 1033.5232
46.0700 816.8406
46.0800 1082.2832
46.0900 1040.6390
46.1000 823.5670
46.1100 588.2804
46.1200 829.8066
46.1300 822.9068
46.1400 835.8570
46.1500 1077.5712
46.1600 871.4966
46.1700 889.7966
46.1800 898.9096
46.1900 956.8700
46.2000 722.8300
46.2100 584.9496
46.2200 656.7440
46.2300 937.0646
46.2400 813.4016
46.2500 548.3384
46.2600 666.1288
46.2700 834.8350
46.2800 614.8668
46.2900 814.4132
46.3000 800.2980
46.3100 791.2298
46.3200 752.4148
46.3300 671.3276
46.3400 812.0070
46.3500 891.5010
46.3600 983.3124
46.3700 620.9946
46.3800 618.7474
46.3900 697.3056
46.4000 688.7344
46.4100 659.0514
46.4200 985.8530
46.4300 679.7798
46.4400 718.2044
46.4500 762.0898
46.4600 734.8200
46.4700 738.0164
46.4800 811.9454
46.4900 578.8854
46.5000 749.8662
46.5100 656.8332
46.5200 631.9472
46.5300 785.7218
46.5400 882.1032
46.5500 793.0366
46.5600 635.9730
46.5700 805.5042
46.5800 653.4550
46.5900 711.6388
46.6000 752.9048
46.6100 662.7850
46.6200 707.7316
46.6300 680.0624
46.6400 615.6490
46.6500 688.7562
46.6600 959.7608
46.6700 442.1566
46.6800 643.8616
46.6900 621.1872
46.7000 903.3796
46.7100 574.5826
46.7200 612.3948
46.7300 528.8654
46.7400 650.0750
46.7500 628.6604
46.7600 701.3502
46.7700 364.3752
46.7800 1042.6186
46.7900 718.4136
46.8000 621.8064
46.8100 863.0628
46.8200 516.8112
46.8300 513.2970
46.8400 716.6368
46.8500 541.3700
46.8600 778.6716
46.8700 638.4846
46.8800 711.5722
46.8900 490.0906
46.9000 777.6680
46.9100 521.5356
46.9200 676.8000
46.9300 642.6278
46.9400 551.9834
46.9500 883.4328
46.9600 759.8992
46.9700 712.4014
46.9800 580.9910
46.9900 798.0966
47.0000 757.5998
47.0100 758.5234
47.0200 645.4024
47.0300 673.9982
47.0400 596.1414
47.0500 591.7482
47.0600 883.7772
47.0700 851.4278
47.0800 735.2076
47.0900 819.5818
47.1000 1016.9450
47.1100 890.8536
47.1200 523.2522
47.1300 700.4714
47.1400 638.5988
47.1500 579.9108
47.1600 525.8700
47.1700 566.1952
47.1800 633.1870
47.1900 828.1764
47.2000 809.2250
47.2100 703.4536
47.2200 682.0800
47.2300 788.6642
47.2400 711.0524
47.2500 645.9550
47.2600 821.0688
47.2700 555.5018
47.2800 883.8966
47.2900 701.1456
47.3000 666.8404
47.3100 627.0426
47.3200 483.5184
47.3300 528.7576
47.3400 478.9164
47.3500 653.5704
47.3600 782.0660
47.3700 785.5326
47.3800 484.3558
47.3900 884.5326
47.4000 642.3314
47.4100 646.5924
47.4200 669.6072
47.4300 686.5976
47.4400 618.5080
47.4500 861.7308
47.4600 654.9228
47.4700 863.8270
47.4800 728.7624
47.4900 810.3688
47.5000 734.0148
47.5100 570.3858
47.5200 789.3956
47.5300 733.6560
47.5400 496.8412
47.5500 573.8808
47.5600 1149.2514
47.5700 1039.8038
47.5800 733.2462
47.5900 582.9266
47.6000 598.2454
47.6100 590.4518
47.6200 689.2972
47.6300 683.6532
47.6400 737.2172
47.6500 537.9398
47.6600 711.5526
47.6700 786.0374
47.6800 739.5160
47.6900 676.5682
47.7000 597.6622
47.7100 673.2116
47.7200 738.1658
47.7300 529.5404
47.7400 628.0808
47.7500 709.6062
47.7600 777.2770
47.7700 656.6042
47.7800 721.9360
47.7900 730.8986
47.8000 801.8498
47.8100 522.7890
47.8200 633.5000
47.8300 813.0912
47.8400 873.1570
47.8500 730.0020
47.8600 611.3894
47.8700 477.2700
47.8800 515.9124
47.8900 723.1168
47.9000 586.9890
47.9100 590.5256
47.9200 448.6856
47.9300 881.7062
47.9400 687.3402
47.9500 734.1700
47.9600 490.0498
47.9700 480.8004
47.9800 527.2150
47.9900 801.5240
48.0000 720.7872
48.0100 661.7068
48.0200 702.8180
48.0300 757.0812
48.0400 860.6008
48.0500 893.3904
48.0600 712.1974
48.0700 803.5798
48.0800 663.7918
48.0900 883.6836
48.1000 833.2768
48.1100 738.1046
48.1200 691.7434
48.1300 617.9150
48.1400 759.1616
48.1500 680.9418
48.1600 730.7832
48.1700 594.9138
48.1800 704.7276
48.1900 692.2616
48.2000 1071.5902
48.2100 583.7374
48.2200 625.2102
48.2300 622.3948
48.2400 925.8570
48.2500 762.5736
48.2600 796.6122
48.2700 1041.4304
48.2800 873.7580
48.2900 687.7136
48.3000 557.4548
48.3100 656.0096
48.3200 773.9540
48.3300 939.3608
48.3400 969.2646
48.3500 748.1202
48.3600 526.8948
48.3700 601.9154
48.3800 571.2414
48.3900 543.0832
48.4000 788.8658
48.4100 803.5460
48.4200 698.6754
48.4300 715.8586
48.4400 735.9612
48.4500 699.6510
48.4600 660.1908
48.4700 788.5218
48.4800 671.2772
48.4900 831.7894
48.5000 546.2512
48.5100 725.3040
48.5200 683.2570
48.5300 657.9236
48.5400 671.2100
48.5500 713.6622
48.5600 708.3652
48.5700 805.8422
48.5800 436.8148
48.5900 1005.6358
48.6000 767.4166
48.6100 926.4104
48.6200 777.7758
48.6300 851.6244
48.6400 681.9420
48.6500 757.7586
48.6600 735.3066
48.6700 525.6168
48.6800 579.8814
48.6900 636.9324
48.7000 902.4926
48.7100 636.9090
48.7200 574.1824
48.7300 725.8886
48.7400 646.8848
48.7500 510.5538
48.7600 881.1538
48.7700 486.5844
48.7800 537.3316
48.7900 775.9884
48.8000 714.1336
48.8100 726.5086
48.8200 532.5742
48.8300 509.2112
48.8400 823.9384
48.8500 679.5052
48.8600 647.2480
48.8700 845.8790
48.8800 616.5130
48.8900 827.3364
48.9000 820.1752
48.9100 725.3818
48.9200 767.7336
48.9300 746.5974
48.9400 661.9160
48.9500 862.2740
48.9600 876.4620
48.9700 661.2270
48.9800 1055.4978
48.9900 662.9916
49.0000 636.2552
49.0100 778.6776
49.0200 750.7198
49.0300 672.4864
49.0400 667.3574
49.0500 949.2354
49.0600 837.1262
49.0700 793.1360
49.0800 920.8470
49.0900 908.8172
49.1000 701.5120
49.1100 814.5090
49.1200 588.2232
49.1300 659.4846
49.1400 800.1890
49.1500 645.0390
49.1600 800.7332
49.1700 665.7342
49.1800 583.1364
49.1900 739.4890
49.2000 477.1246
49.2100 866.9196
49.2200 828.5526
49.2300 635.5158
49.2400 568.5648
49.2500 735.6274
49.2600 661.2802
49.2700 922.2178
49.2800 600.8790
49.2900 644.4052
49.3000 797.9582
49.3100 728.6662
49.3200 761.2852
49.3300 683.2636
49.3400 893.3182
49.3500 537.0168
49.3600 570.2852
49.3700 711.5816
49.3800 670.7934
49.3900 711.1806
49.4000 401.6442
49.4100 631.8116
49.4200 520.6990
49.4300 719.2448
49.4400 879.2714
49.4500 686.0106
49.4600 779.0806
49.4700 671.9670
49.4800 436.5244
49.4900 820.7274
49.5000 712.9310
49.5100 970.1266
49.5200 756.6692
49.5300 453.9244
49.5400 654.5198
49.5500 679.5832
49.5600 596.7390
49.5700 598.1864
49.5800 595.4960
49.5900 548.2624
49.6000 678.3588
49.6100 570.8346
49.6200 864.7860
49.6300 633.2612
49.6400 729.7010
49.6500 760.4118
49.6600 751.4442
49.6700 972.0408
49.6800 609.8012
49.6900 621.5932
49.7000 682.7664
49.7100 640.9920
49.7200 711.0818
49.7300 824.9828
49.7400 581.4038
49.7500 780.5924
49.7600 602.1514
49.7700 792.3698
49.7800 476.6756
49.7900 645.3296
49.8000 618.1002
49.8100 441.6882
49.8200 784.4602
49.8300 573.9840
49.8400 606.7078
49.8500 748.1054
49.8600 842.6664
49.8700 669.7488
49.8800 563.5396
49.8900 688.2704
49.9000 652.0510
49.9100 711.2136
49.9200 682.3862
49.9300 585.3312
49.9400 634.1144
49.9500 352.6356
49.9600 564.3130
49.9700 816.0582
49.9800 668.1642
49.9900 808.6308
50.0000 499.5156
50.0100 817.7400
50.0200 723.2018
50.0300 815.7412
50.0400 945.5664
50.0500 532.2488
50.0600 655.9732
50.0700 748.2090
50.0800 678.6066
50.0900 846.3806
50.1000 762.3700
50.1100 488.3190
50.1200 718.6278
50.1300 654.4146
50.1400 747.1618
50.1500 614.4328
50.1600 1053.9176
50.1700 820.7428
50.1800 826.8574
50.1900 803.3508
50.2000 905.0660
50.2100 682.6070
50.2200 780.3522
50.2300 834.6482
50.2400 897.4164
50.2500 517.6252
50.2600 867.3600
50.2700 1055.1854
50.2800 1053.1418
50.2900 920.7356
50.3000 944.8348
50.3100 1058.8334
50.3200 1185.7824
50.3300 1166.2336
50.3400 1073.3492
50.3500 1104.2130
50.3600 994.9022
50.3700 1090.0578
50.3800 900.1246
50.3900 1238.4790
50.4000 1151.7206
50.4100 1361.3530
50.4200 953.4630
50.4300 1139.8282
50.4400 1146.1410
50.4500 1443.6280
50.4600 1475.7078
50.4700 1186.8258
50.4800 1356.5874
50.4900 1462.1890
50.5000 1636.4688
50.5100 1760.7604
50.5200 1799.1558
50.5300 2031.2744
50.5400 2322.5492
50.5500 1960.0808
50.5600 2549.4252
50.5700 2178.1372
50.5800 2203.7016
50.5900 2617.0884
50.6000 2491.0464
50.6100 2186.1390
50.6200 2362.8362
50.6300 1843.3280
50.6400 2360.7674
50.6500 2324.0988
50.6600 2396.2898
50.6700 2222.2030
50.6800 2138.5744
50.6900 2583.7918
50.7000 2469.8348
50.7100 2155.4472
50.7200 2238.5322
50.7300 2466.6698
50.7400 2358.0086
50.7500 1894.0504
50.7600 2078.3970
50.7700 1951.0334
50.7800 2052.4232
50.7900 1755.0284
50.8000 1805.0690
50.8100 1641.1886
50.8200 1717.7576
50.8300 1845.4036
50.8400 1597.0796
50.8500 1737.1640
50.8600 1413.6404
50.8700 1217.8224
50.8800 1422.2448
50.8900 1201.7604
50.9000 926.9330
50.9100 1235.9752
50.9200 1146.7802
50.9300 1403.1876
50.9400 1190.0038
50.9500 861.3642
50.9600 728.3612
50.9700 1029.8008
50.9800 864.4850
50.9900 858.8582
51.0000 1109.3372
51.0100 902.7518
51.0200 686.9778
51.0300 936.9646
51.0400 935.3030
51.0500 732.1114
51.0600 907.9062
51.0700 713.3874
51.0800 581.4718
51.0900 914.1450
51.1000 688.2104
51.1100 822.5340
51.1200 507.1158
51.1300 993.9562
51.1400 675.3826
51.1500 760.6618
51.1600 739.1190
51.1700 783.0688
51.1800 799.3396
51.1900 602.6678
51.2000 790.5314
51.2100 821.3730
51.2200 705.9026
51.2300 635.0362
51.2400 828.8022
51.2500 905.7270
51.2600 676.2608
51.2700 635.7378
51.2800 648.0104
51.2900 789.1230
51.3000 570.3398
51.3100 750.3138
51.3200 1053.3840
51.3300 676.7422
51.3400 875.9304
51.3500 495.6392
51.3600 665.3496
51.3700 715.9576
51.3800 778.2352
51.3900 699.7934
51.4000 704.8662
51.4100 793.2608
51.4200 606.4054
51.4300 821.9152
51.4400 617.3712
51.4500 613.9068
51.4600 711.5120
51.4700 769.0568
51.4800 605.0474
51.4900 718.5512
51.5000 692.8732
51.5100 807.3568
51.5200 925.9332
51.5300 814.0538
51.5400 670.6956
51.5500 562.3312
51.5600 415.3700
51.5700 561.2134
51.5800 531.7760
51.5900 665.6056
51.6000 874.7742
51.6100 810.1726
51.6200 746.9258
51.6300 697.5672
51.6400 702.3072
51.6500 664.7006
51.6600 1008.6384
51.6700 715.4388
51.6800 818.6144
51.6900 622.1670
51.7000 616.4500
51.7100 723.6200
51.7200 967.0698
51.7300 558.2916
51.7400 653.9694
51.7500 746.9756
51.7600 430.2078
51.7700 486.6904
51.7800 844.0134
51.7900 432.2146
51.8000 900.1946
51.8100 805.4196
51.8200 837.4266
51.8300 774.4928
51.8400 752.6414
51.8500 725.5716
51.8600 679.1420
51.8700 783.3528
51.8800 705.7154
51.8900 745.5324
51.9000 842.8238
51.9100 931.6320
51.9200 847.1844
51.9300 968.1076
51.9400 576.7276
51.9500 642.8048
51.9600 710.2972
51.9700 796.9444
51.9800 737.7150
51.9900 635.6344
52.0000 697.9164
52.0100 732.3546
52.0200 746.7234
52.0300 755.5336
52.0400 662.1912
52.0500 625.1252
52.0600 720.0164
52.0700 849.7916
52.0800 518.5720
52.0900 668.1102
52.1000 574.9206
52.1100 845.0774
52.1200 696.2254
52.1300 844.9646
52.1400 959.7648
52.1500 816.7970
52.1600 834.3070
52.1700 486.8388
52.1800 745.1428
52.1900 645.9500
52.2000 763.6576
52.2100 748.1482
52.2200 617.4346
52.2300 647.9760
52.2400 809.5952
52.2500 740.0638
52.2600 827.6100
52.2700 674.5740
52.2800 975.0248
52.2900 876.0142
52.3000 647.5514
52.3100 570.7070
52.3200 1053.4928
52.3300 1001.2762
52.3400 569.7366
52.3500 842.1730
52.3600 759.9162
52.3700 840.3554
52.3800 934.5248
52.3900 774.5686
52.4000 699.5216
52.4100 894.0966
52.4200 907.4180
52.4300 780.8574
52.4400 614.8770
52.4500 514.6776
52.4600 817.3836
52.4700 1037.1244
52.4800 984.5742
52.4900 781.4940
52.5000 643.9144
52.5100 828.4730
52.5200 735.1500
52.5300 742.6054
52.5400 756.3714
52.5500 701.5318
52.5600 1078.1430
52.5700 861.9734
52.5800 763.8584
52.5900 747.4498
52.6000 612.2532
52.6100 762.7784
52.6200 1049.0472
52.6300 611.6946
52.6400 691.9192
52.6500 792.3322
52.6600 835.0746
52.6700 754.4482
52.6800 790.2404
52.6900 793.3444
52.7000 930.7644
52.7100 653.3560
52.7200 977.0814
52.7300 688.9164
52.7400 1093.4560
52.7500 1019.1278
52.7600 890.1840
52.7700 1148.8300
52.7800 1021.9896
52.7900 1041.3558
52.8000 1084.1178
52.8100 1488.3386
52.8200 1447.4980
52.8300 1370.6484
52.8400 1249.1920
52.8500 977.7758
52.8600 1248.0716
52.8700 1080.0100
52.8800 1045.3742
52.8900 1025.4132
52.9000 998.1998
52.9100 1199.6626
52.9200 1236.0826
52.9300 1202.6098
52.9400 1092.4472
52.9500 838.1908
52.9600 842.2118
52.9700 1050.4326
52.9800 854.9368
52.9900 657.3746
53.0000 715.4762
53.0100 956.7806
53.0200 863.4252
53.0300 625.8492
53.0400 792.1278
53.0500 945.1434
53.0600 771.0928
53.0700 587.9850
53.0800 663.8278
53.0900 861.3500
53.1000 714.8240
53.1100 737.5894
53.1200 746.5140
53.1300 623.7734
53.1400 700.1884
53.1500 861.5382
53.1600 664.5202
53.1700 703.8074
53.1800 579.5812
53.1900 559.7646
53.2000 622.5972
53.2100 543.5070
53.2200 576.5982
53.2300 733.0484
53.2400 707.7698
53.2500 673.9402
53.2600 734.1278
53.2700 540.9928
53.2800 853.4430
53.2900 672.9900
53.3000 837.8142
53.3100 689.3134
53.3200 862.9454
53.3300 736.0178
53.3400 706.6452
53.3500 680.9944
53.3600 694.5812
53.3700 812.3048
53.3800 536.6144
53.3900 815.7722
53.4000 775.8628
53.4100 611.1696
53.4200 602.5702
53.4300 569.0114
53.4400 488.7376
53.4500 641.8000
53.4600 770.3460
53.4700 539.8584
53.4800 646.5908
53.4900 794.9258
53.5000 690.0410
53.5100 512.6622
53.5200 521.6056
53.5300 573.5100
53.5400 717.7434
53.5500 704.3108
53.5600 662.6410
53.5700 657.9852
53.5800 669.7940
53.5900 608.8420
53.6000 659.0236
53.6100 842.9438
53.6200 756.5824
53.6300 796.5836
53.6400 867.7132
53.6500 711.4842
53.6600 569.9440
53.6700 848.2848
53.6800 719.9326
53.6900 796.9730
53.7000 682.6456
53.7100 706.4578
53.7200 481.2396
53.7300 632.2028
53.7400 893.0936
53.7500 705.5268
53.7600 835.9420
53.7700 754.3834
53.7800 803.4736
53.7900 764.3098
53.8000 587.8876
53.8100 770.5126
53.8200 627.1690
53.8300 844.0066
53.8400 540.1932
53.8500 626.9734
53.8600 641.7162
53.8700 576.0980
53.8800 811.9374
53.8900 645.1356
53.9000 661.2290
53.9100 632.9592
53.9200 603.8806
53.9300 476.8902
53.9400 581.2892
53.9500 578.1384
53.9600 769.0712
53.9700 557.3252
53.9800 426.9254
53.9900 590.2442
54.0000 631.1582
54.0100 642.7256
54.0200 706.6508
54.0300 790.2090
54.0400 655.6556
54.0500 763.1970
54.0600 501.1790
54.0700 468.7670
54.0800 867.8934
54.0900 748.9880
54.1000 650.8158
54.1100 697.7608
54.1200 764.6494
54.1300 812.8492
54.1400 695.4916
54.1500 799.3818
54.1600 676.4072
54.1700 788.0206
54.1800 696.8484
54.1900 582.1616
54.2000 714.8354
54.2100 703.0810
54.2200 600.0848
54.2300 787.2798
54.2400 699.7810
54.2500 549.9696
54.2600 932.7258
54.2700 794.2050
54.2800 750.6108
54.2900 553.5920
54.3000 779.5210
54.3100 721.5558
54.3200 619.3852
54.3300 585.4284
54.3400 590.6200
54.3500 593.7522
54.3600 723.2604
54.3700 638.0758
54.3800 932.9680
54.3900 796.9536
54.4000 714.7726
54.4100 397.4468
54.4200 677.5424
54.4300 767.1392
54.4400 621.5360
54.4500 549.8368
54.4600 601.2652
54.4700 788.1284
54.4800 673.0220
54.4900 766.8934
54.5000 718.2298
54.5100 535.3988
54.5200 906.3412
54.5300 676.6942
54.5400 600.8712
54.5500 751.5788
54.5600 560.3388
54.5700 744.4462
54.5800 705.1942
54.5900 704.7782
54.6000 817.2512
54.6100 675.2544
54.6200 741.5610
54.6300 487.5862
54.6400 780.8174
54.6500 750.2332
54.6600 686.4274
54.6700 609.5378
54.6800 844.9340
54.6900 685.7258
54.7000 629.3520
54.7100 639.5212
54.7200 656.8378
54.7300 700.4898
54.7400 634.8472
54.7500 927.1116
54.7600 853.1522
54.7700 824.4216
54.7800 879.6432
54.7900 636.6840
54.8000 606.6836
54.8100 839.1772
54.8200 740.6222
54.8300 921.2450
54.8400 917.9776
54.8500 770.0998
54.8600 843.0152
54.8700 754.9766
54.8800 717.7168
54.8900 838.5074
54.9000 973.8664
54.9100 1031.3780
54.9200 918.5636
54.9300 970.3206
54.9400 819.6068
54.9500 979.4634
54.9600 822.6518
54.9700 1056.4056
54.9800 1101.5364
54.9900 940.9670
55.0000 977.5696
55.0100 823.9848
55.0200 893.4196
55.0300 695.7642
55.0400 769.7904
55.0500 979.3826
55.0600 996.7906
55.0700 1043.2136
55.0800 1024.9154
55.0900 835.8066
55.1000 697.8886
55.1100 1088.1922
55.1200 1122.9118
55.1300 852.7882
55.1400 785.2206
55.1500 696.7240
55.1600 594.8406
55.1700 708.3974
55.1800 828.7142
55.1900 1050.0234
55.2000 590.1892
55.2100 670.7968
55.2200 914.9774
55.2300 920.1574
55.2400 610.7344
55.2500 687.6508
55.2600 581.6676
55.2700 497.7218
55.2800 594.6268
55.2900 746.6818
55.3000 485.1228
55.3100 540.8956
55.3200 774.8432
55.3300 565.4942
55.3400 588.0932
55.3500 565.0522
55.3600 779.9598
55.3700 536.5758
55.3800 738.4120
55.3900 784.2922
55.4000 746.4790
55.4100 900.8184
55.4200 604.7888
55.4300 613.4750
55.4400 601.0088
55.4500 783.8030
55.4600 725.2018
55.4700 637.1054
55.4800 692.5374
55.4900 543.6682
55.5000 755.4722
55.5100 675.4836
55.5200 855.9482
55.5300 849.1608
55.5400 793.7164
55.5500 876.2528
55.5600 820.7600
55.5700 841.3786
55.5800 759.3318
55.5900 773.6274
55.6000 709.2568
55.6100 869.8786
55.6200 746.8308
55.6300 891.6560
55.6400 554.1964
55.6500 686.0374
55.6600 936.5638
55.6700 928.4050
55.6800 834.8044
55.6900 936.7296
55.7000 750.9250
55.7100 625.4010
55.7200 811.9552
55.7300 579.5376
55.7400 751.8510
55.7500 840.8620
55.7600 678.7220
55.7700 839.9860
55.7800 604.8922
55.7900 730.0422
55.8000 942.5742
55.8100 1022.3922
55.8200 745.8978
55.8300 827.1006
55.8400 737.8224
55.8500 530.4346
55.8600 706.9308
55.8700 641.0766
55.8800 612.6966
55.8900 778.9246
55.9000 364.0510
55.9100 806.5542
55.9200 746.2804
55.9300 629.2150
55.9400 536.8368
55.9500 697.9290
55.9600 575.2934
55.9700 714.1736
55.9800 776.3400
55.9900 740.2414
56.0000 569.2464
56.0100 574.7264
56.0200 797.0622
56.0300 903.3500
56.0400 540.4856
56.0500 547.9200
56.0600 688.5958
56.0700 637.2540
56.0800 410.7090
56.0900 614.5126
56.1000 742.3976
56.1100 497.4026
56.1200 641.3724
56.1300 561.7304
56.1400 716.7552
56.1500 552.0092
56.1600 668.8974
56.1700 529.1358
56.1800 634.8340
56.1900 636.1000
56.2000 519.2994
56.2100 530.7174
56.2200 607.8126
56.2300 584.2432
56.2400 734.6144
56.2500 748.6224
56.2600 968.5914
56.2700 637.3520
56.2800 557.1128
56.2900 513.7364
56.3000 719.1974
56.3100 529.4068
56.3200 631.1970
56.3300 574.7918
56.3400 817.3218
56.3500 475.2536
56.3600 485.6600
56.3700 648.6256
56.3800 643.7356
56.3900 609.3102
56.4000 561.7620
56.4100 675.9782
56.4200 722.9048
56.4300 581.7652
56.4400 619.3948
56.4500 587.2530
56.4600 588.5790
56.4700 598.9088
56.4800 536.8510
56.4900 732.7570
56.5000 661.7022
56.5100 799.9404
56.5200 845.2332
56.5300 597.4094
56.5400 606.6904
56.5500 555.5564
56.5600 609.6508
56.5700 545.2034
56.5800 755.0728
56.5900 802.5612
56.6000 541.9726
56.6100 624.3158
56.6200 811.6988
56.6300 722.7888
56.6400 702.3308
56.6500 645.6570
56.6600 532.2160
56.6700 491.0026
56.6800 409.6454
56.6900 694.3120
56.7000 624.7646
56.7100 801.9772
56.7200 681.5674
56.7300 785.7486
56.7400 547.1410
56.7500 543.6382
56.7600 625.0654
56.7700 584.5374
56.7800 710.1020
56.7900 595.6152
56.8000 512.8818
56.8100 606.5114
56.8200 750.0560
56.8300 761.1048
56.8400 574.9648
56.8500 681.4288
56.8600 914.7464
56.8700 348.8092
56.8800 622.9288
56.8900 466.9830
56.9000 831.6708
56.9100 621.9336
56.9200 438.2744
56.9300 526.2308
56.9400 520.0408
56.9500 495.8252
56.9600 665.6744
56.9700 524.5964
56.9800 782.4844
56.9900 389.6222
57.0000 791.4300
57.0100 930.3320
57.0200 694.6122
57.0300 691.0260
57.0400 714.6254
57.0500 655.2892
57.0600 718.5626
57.0700 422.7086
57.0800 987.6432
57.0900 792.3984
57.1000 665.7130
57.1100 513.7292
57.1200 593.3430
57.1300 853.2490
57.1400 685.6448
57.1500 669.0036
57.1600 593.6196
57.1700 573.2340
57.1800 764.3442
57.1900 796.8388
57.2000 648.1358
57.2100 583.6592
57.2200 561.4780
57.2300 779.7550
57.2400 703.6022
57.2500 722.3670
57.2600 922.6636
57.2700 658.7966
57.2800 591.5664
57.2900 753.3270
57.3000 618.5780
57.3100 568.4228
57.3200 622.5996
57.3300 711.0062
57.3400 831.6576
57.3500 636.1398
57.3600 912.3002
57.3700 694.8212
57.3800 619.3850
57.3900 686.5090
57.4000 612.8810
57.4100 670.4504
57.4200 573.0480
57.4300 659.4310
57.4400 484.6604
57.4500 706.2182
57.4600 491.0372
57.4700 564.3332
57.4800 562.9876
57.4900 702.4064
57.5000 818.7272
57.5100 549.0472
57.5200 574.9794
57.5300 568.0478
57.5400 799.8890
57.5500 674.2252
57.5600 688.7528
57.5700 548.4726
57.5800 851.6018
57.5900 760.0636
57.6000 475.2942
57.6100 557.2624
57.6200 690.1058
57.6300 779.3298
57.6400 662.8624
57.6500 627.1188
57.6600 644.9292
57.6700 626.3650
57.6800 644.1522
57.6900 803.6364
57.7000 835.5292
57.7100 590.8338
57.7200 810.3390
57.7300 482.4204
57.7400 526.8248
57.7500 788.1506
57.7600 713.7724
57.7700 466.9278
57.7800 779.0146
57.7900 671.0976
57.8000 643.4262
57.8100 518.2402
57.8200 590.5850
57.8300 429.9638
57.8400 631.0280
57.8500 576.9542
57.8600 546.7936
57.8700 626.2612
57.8800 574.4058
57.8900 777.9542
57.9000 624.4396
57.9100 802.5484
57.9200 643.3364
57.9300 554.2468
57.9400 517.1150
57.9500 737.2160
57.9600 659.8872
57.9700 675.4010
57.9800 768.5742
57.9900 670.0126
58.0000 784.9054
58.0100 542.6316
58.0200 777.6622
58.0300 707.0144
58.0400 685.9708
58.0500 648.5600
58.0600 836.1118
58.0700 797.6006
58.0800 617.4296
58.0900 527.0340
58.1000 643.8312
58.1100 748.4928
58.1200 609.1574
58.1300 818.3952
58.1400 624.5952
58.1500 627.4298
58.1600 767.4456
58.1700 615.5298
58.1800 850.4030
58.1900 700.6480
58.2000 650.8352
58.2100 690.8062
58.2200 624.2288
58.2300 687.6094
58.2400 672.5728
58.2500 596.1222
58.2600 746.8384
58.2700 568.2090
58.2800 809.8708
58.2900 803.8204
58.3000 939.6592
58.3100 890.2882
58.3200 1033.6010
58.3300 779.0946
58.3400 637.7144
58.3500 772.8878
58.3600 604.6748
58.3700 793.2970
58.3800 560.8826
58.3900 752.3924
58.4000 773.4642
58.4100 711.1594
58.4200 698.2916
58.4300 634.1016
58.4400 761.5932
58.4500 736.0816
58.4600 554.1048
58.4700 726.9866
58.4800 620.7602
58.4900 718.9296
58.5000 752.5534
58.5100 668.9296
58.5200 691.8672
58.5300 923.2802
58.5400 817.3806
58.5500 647.6922
58.5600 641.0682
58.5700 809.7586
58.5800 546.5388
58.5900 638.2848
58.6000 439.4754
58.6100 630.5710
58.6200 493.3054
58.6300 637.4770
58.6400 809.2014
58.6500 911.9878
58.6600 656.3154
58.6700 751.2908
58.6800 566.8860
58.6900 655.2910
58.7000 759.5314
58.7100 644.5262
58.7200 884.4616
58.7300 1146.9436
58.7400 877.7310
58.7500 902.5422
58.7600 1054.5794
58.7700 942.9316
58.7800 823.0830
58.7900 759.2604
58.8000 812.6338
58.8100 692.7636
58.8200 703.1816
58.8300 747.2102
58.8400 547.1602
58.8500 992.9156
58.8600 820.1832
58.8700 752.3726
58.8800 1032.4190
58.8900 896.2466
58.9000 652.3064
58.9100 715.0052
58.9200 884.8958
58.9300 974.9700
58.9400 889.3220
58.9500 758.4694
58.9600 562.7438
58.9700 573.1722
58.9800 794.7064
58.9900 601.2658
59.0000 736.1192
59.0100 949.5332
59.0200 1029.7920
59.0300 817.1782
59.0400 934.1786
59.0500 1033.3950
59.0600 1139.4992
59.0700 1023.2484
59.0800 1333.7328
59.0900 1199.1834
59.1000 856.0306
59.1100 894.5414
59.1200 1002.7462
59.1300 920.1892
59.1400 912.0026
59.1500 1192.5652
59.1600 1012.8844
59.1700 1068.3724
59.1800 812.4410
59.1900 870.0552
59.2000 788.2272
59.2100 661.8986
59.2200 1036.0806
59.2300 875.1322
59.2400 867.9314
59.2500 802.8548
59.2600 870.1338
59.2700 754.6046
59.2800 1256.6360
59.2900 1090.2018
59.3000 738.3508
59.3100 812.1862
59.3200 1018.1892
59.3300 784.9490
59.3400 551.1794
59.3500 902.4692
59.3600 806.7486
59.3700 844.7064
59.3800 675.0770
59.3900 818.5848
59.4000 835.1152
59.4100 630.8976
59.4200 704.5854
59.4300 594.2306
59.4400 579.8596
59.4500 891.6110
59.4600 773.6204
59.4700 649.2832
59.4800 699.0634
59.4900 1106.9848
59.5000 849.5246
59.5100 887.1962
59.5200 906.1104
59.5300 799.7306
59.5400 614.5042
59.5500 940.5084
59.5600 988.9962
59.5700 643.5730
59.5800 988.8114
59.5900 723.0206
59.6000 657.0360
59.6100 962.5406
59.6200 780.0334
59.6300 902.8024
59.6400 725.6236
59.6500 674.1524
59.6600 770.4864
59.6700 721.0784
59.6800 764.7604
59.6900 733.4282
59.7000 772.1690
59.7100 589.8692
59.7200 599.5352
59.7300 678.4408
59.7400 768.2890
59.7500 823.8604
59.7600 666.5852
59.7700 856.8294
59.7800 947.2126
59.7900 716.6460
59.8000 811.8990
59.8100 859.6278
59.8200 934.3838
59.8300 681.2480
59.8400 676.4344
59.8500 707.6754
59.8600 682.7536
59.8700 956.6082
59.8800 929.8482
59.8900 1048.3480
59.9000 926.8724
59.9100 1166.8862
59.9200 838.6640
59.9300 904.0960
59.9400 909.1542
59.9500 1045.0528
59.9600 943.5432
59.9700 640.9866
59.9800 1018.0022
59.9900 1079.1692
60.0000 998.4478
60.0100 943.7466
60.0200 729.1912
60.0300 921.3706
60.0400 932.9214
60.0500 954.3400
60.0600 991.6044
60.0700 1030.4094
60.0800 1192.9172
60.0900 1204.4548
60.1000 1140.3176
60.1100 1424.9914
60.1200 877.8546
60.1300 1217.7350
60.1400 1272.2600
60.1500 1357.0252
60.1600 1232.3360
60.1700 1290.2010
60.1800 1263.9908
60.1900 1078.2792
60.2000 1455.4756
60.2100 1063.7202
60.2200 1378.9484
60.2300 1626.4924
60.2400 1649.1924
60.2500 1687.6924
60.2600 1758.0006
60.2700 1748.5532
60.2800 1457.9816
60.2900 1306.8388
60.3000 1503.0044
60.3100 1540.5874
60.3200 1308.6622
60.3300 1662.8198
60.3400 1258.5298
60.3500 701.4060
60.3600 1224.3770
60.3700 1131.7312
60.3800 1287.0558
60.3900 1261.0800
60.4000 1329.0846
60.4100 1300.6970
60.4200 1168.0376
60.4300 1393.4774
60.4400 1213.5790
60.4500 1030.0946
60.4600 1028.1942
60.4700 967.7922
60.4800 1247.6072
60.4900 1128.9310
60.5000 1252.2886
60.5100 1248.3410
60.5200 1207.7922
60.5300 1301.0328
60.5400 813.9692
60.5500 736.2886
60.5600 1060.1046
60.5700 1057.5636
60.5800 862.8058
60.5900 687.3174
60.6000 828.3068
60.6100 1007.9490
60.6200 824.9498
60.6300 1111.6602
60.6400 694.1800
60.6500 729.4788
60.6600 912.4544
60.6700 730.3130
60.6800 761.7480
60.6900 623.8834
60.7000 702.8112
60.7100 830.8214
60.7200 706.6964
60.7300 799.3046
60.7400 666.8658
60.7500 840.3732
60.7600 646.3416
60.7700 904.2228
60.7800 715.8664
60.7900 819.0698
60.8000 799.9526
60.8100 840.5598
60.8200 881.1164
60.8300 849.4938
60.8400 792.3760
60.8500 733.0148
60.8600 848.1768
60.8700 822.1210
60.8800 775.8474
60.8900 622.3930
60.9000 789.8306
60.9100 774.4830
60.9200 779.5330
60.9300 778.0662
60.9400 767.0762
60.9500 778.2770
60.9600 804.9490
60.9700 668.3724
60.9800 900.1062
60.9900 928.5172
61.0000 1084.0494
61.0100 817.7556
61.0200 943.8528
61.0300 872.2668
61.0400 1011.6640
61.0500 1104.8192
61.0600 1118.9062
61.0700 1520.8230
61.0800 1452.0736
61.0900 1445.8006
61.1000 1285.7290
61.1100 1503.6714
61.1200 1673.2358
61.1300 1300.2058
61.1400 1204.1624
61.1500 1416.3136
61.1600 1114.7570
61.1700 1300.6750
61.1800 1221.2688
61.1900 1304.7210
61.2000 1233.8228
61.2100 1227.5724
61.2200 1198.5784
61.2300 1142.2350
61.2400 1365.5418
61.2500 1192.3576
61.2600 1358.2548
61.2700 1450.6972
61.2800 1200.2952
61.2900 1163.2000
61.3000 966.5334
61.3100 904.9236
61.3200 1134.1664
61.3300 793.2134
61.3400 820.3942
61.3500 873.3682
61.3600 902.4460
61.3700 899.1952
61.3800 727.0178
61.3900 1082.8832
61.4000 1100.0466
61.4100 913.3546
61.4200 1023.1862
61.4300 893.7676
61.4400 787.3428
61.4500 899.2864
61.4600 606.7786
61.4700 856.6526
61.4800 833.9868
61.4900 822.0244
61.5000 1088.1330
61.5100 830.7008
61.5200 829.6950
61.5300 756.5154
61.5400 887.3014
61.5500 975.3384
61.5600 1071.7024
61.5700 757.1948
61.5800 701.7276
61.5900 867.2322
61.6000 753.5304
61.6100 844.9692
61.6200 665.4556
61.6300 862.8522
61.6400 701.6906
61.6500 990.1284
61.6600 596.1462
61.6700 767.2108
61.6800 1033.3518
61.6900 1092.5206
61.7000 792.4850
61.7100 1008.2190
61.7200 545.9140
61.7300 893.8198
61.7400 944.0626
61.7500 970.6282
61.7600 1289.3754
61.7700 954.5612
61.7800 914.6360
61.7900 837.7438
61.8000 962.1080
61.8100 1104.7382
61.8200 943.0724
61.8300 562.7608
61.8400 702.6348
61.8500 833.7200
61.8600 842.7854
61.8700 988.9850
61.8800 966.7954
61.8900 830.9850
61.9000 881.9400
61.9100 701.8038
61.9200 916.6326
61.9300 762.7564
61.9400 710.4708
61.9500 807.4610
61.9600 870.2012
61.9700 754.9730
61.9800 724.7262
61.9900 773.3784
62.0000 609.4060
62.0100 759.2010
62.0200 743.2438
62.0300 713.1022
62.0400 671.4816
62.0500 652.3658
62.0600 731.6126
62.0700 717.2296
62.0800 685.8354
62.0900 625.6738
62.1000 373.2306
62.1100 781.1916
62.1200 747.4438
62.1300 805.2854
62.1400 693.3430
62.1500 633.2434
62.1600 929.7624
62.1700 535.5686
62.1800 667.3224
62.1900 652.3812
62.2000 696.8236
62.2100 839.3802
62.2200 728.3604
62.2300 326.2680
62.2400 618.5864
62.2500 700.6892
62.2600 977.3396
62.2700 624.0812
62.2800 777.0164
62.2900 737.8254
62.3000 757.8280
62.3100 772.6698
62.3200 766.1572
62.3300 614.4302
62.3400 667.2722
62.3500 562.0874
62.3600 705.2402
62.3700 563.7950
62.3800 825.5962
62.3900 635.0534
62.4000 750.3930
62.4100 702.2786
62.4200 829.9028
62.4300 811.0570
62.4400 830.5776
62.4500 797.6136
62.4600 589.9510
62.4700 741.3404
62.4800 564.0524
62.4900 757.5248
62.5000 557.6478
62.5100 580.7186
62.5200 425.3170
62.5300 684.8512
62.5400 519.4476
62.5500 683.5106
62.5600 723.5558
62.5700 536.1480
62.5800 781.6276
62.5900 732.6000
62.6000 654.0438
62.6100 922.1748
62.6200 646.4648
62.6300 796.1858
62.6400 524.4570
62.6500 735.2966
62.6600 606.9750
62.6700 674.8348
62.6800 793.3518
62.6900 696.2162
62.7000 789.0126
62.7100 660.4688
62.7200 601.7218
62.7300 495.3304
62.7400 807.0204
62.7500 736.0982
62.7600 610.0600
62.7700 829.7910
62.7800 940.4430
62.7900 794.8812
62.8000 797.8634
62.8100 811.4196
62.8200 916.5580
62.8300 681.1512
62.8400 755.3440
62.8500 738.3296
62.8600 726.1882
62.8700 752.8572
62.8800 935.2058
62.8900 650.9716
62.9000 533.3462
62.9100 452.1330
62.9200 926.8664
62.9300 716.9748
62.9400 710.3164
62.9500 852.5944
62.9600 1000.8854
62.9700 813.9654
62.9800 720.3602
62.9900 798.3568
63.0000 785.9954
63.0100 819.5826
63.0200 827.5604
63.0300 1085.6368
63.0400 1033.8064
63.0500 702.8732
63.0600 829.1182
63.0700 895.0548
63.0800 961.5534
63.0900 879.8540
63.1000 975.0866
63.1100 882.3942
63.1200 1010.8232
63.1300 796.1678
63.1400 967.0322
63.1500 965.5598
63.1600 1099.7708
63.1700 918.2948
63.1800 1139.7006
63.1900 883.4778
63.2000 870.1108
63.2100 728.3690
63.2200 888.7276
63.2300 993.2288
63.2400 895.4302
63.2500 920.9430
63.2600 851.7418
63.2700 847.0984
63.2800 969.1464
63.2900 933.0650
63.3000 661.6680
63.3100 815.1466
63.3200 712.1354
63.3300 674.6356
63.3400 806.4018
63.3500 973.6510
63.3600 877.2654
63.3700 686.4248
63.3800 779.8676
63.3900 835.4626
63.4000 796.3422
63.4100 507.2608
63.4200 800.6292
63.4300 775.0112
63.4400 754.9126
63.4500 879.3396
63.4600 853.3066
63.4700 600.2048
63.4800 774.7528
63.4900 616.9688
63.5000 550.1444
63.5100 695.2306
63.5200 823.8152
63.5300 727.5820
63.5400 700.7742
63.5500 892.2188
63.5600 899.6574
63.5700 875.8830
63.5800 693.4598
63.5900 861.8562
63.6000 742.6476
63.6100 694.4074
63.6200 607.5194
63.6300 628.6756
63.6400 732.0650
63.6500 638.2058
63.6600 683.3158
63.6700 729.9340
63.6800 808.5486
63.6900 666.9168
63.7000 640.3674
63.7100 759.3100
63.7200 680.7174
63.7300 804.1232
63.7400 571.6726
63.7500 617.9342
63.7600 595.9274
63.7700 650.3594
63.7800 761.6330
63.7900 933.2860
63.8000 532.7424
63.8100 714.3712
63.8200 712.5502
63.8300 796.2518
63.8400 720.5632
63.8500 710.9246
63.8600 677.7628
63.8700 839.4014
63.8800 715.5246
63.8900 675.3150
63.9000 634.2104
63.9100 695.0142
63.9200 727.2630
63.9300 502.6998
63.9400 743.8930
63.9500 832.4884
63.9600 819.8774
63.9700 529.0490
63.9800 652.7816
63.9900 683.8124
64.0000 489.0232
64.0100 682.7262
64.0200 580.2822
64.0300 697.6032
64.0400 674.3252
64.0500 784.8002
64.0600 784.9056
64.0700 854.6326
64.0800 706.5838
64.0900 772.5586
64.1000 711.7272
64.1100 628.6788
64.1200 644.2142
64.1300 567.6596
64.1400 548.1496
64.1500 523.9960
64.1600 516.6126
64.1700 685.2794
64.1800 687.8780
64.1900 699.7370
64.2000 594.3914
64.2100 902.9284
64.2200 798.0172
64.2300 693.0188
64.2400 785.7292
64.2500 548.0074
64.2600 555.1156
64.2700 724.3208
64.2800 571.5702
64.2900 759.4580
64.3000 630.4512
64.3100 737.6518
64.3200 622.7942
64.3300 412.7608
64.3400 611.2044
64.3500 753.4150
64.3600 703.2624
64.3700 881.3346
64.3800 843.2890
64.3900 709.1122
64.4000 787.7660
64.4100 633.1244
64.4200 615.0516
64.4300 465.9852
64.4400 702.3264
64.4500 699.4198
64.4600 840.4684
64.4700 725.7716
64.4800 846.2552
64.4900 700.4740
64.5000 754.3788
64.5100 756.7118
64.5200 833.2106
64.5300 739.3550
64.5400 720.7516
64.5500 806.8120
64.5600 652.0108
64.5700 647.4880
64.5800 690.2398
64.5900 404.5404
64.6000 637.9294
64.6100 699.7830
64.6200 614.5260
64.6300 725.6966
64.6400 562.6084
64.6500 621.6238
64.6600 772.1102
64.6700 678.7768
64.6800 398.3138
64.6900 664.2706
64.7000 684.9222
64.7100 594.1234
64.7200 572.9476
64.7300 584.7810
64.7400 799.0106
64.7500 532.8290
64.7600 857.9936
64.7700 880.8644
64.7800 765.4644
64.7900 480.8642
64.8000 590.6486
64.8100 778.8788
64.8200 575.0166
64.8300 421.4002
64.8400 661.7472
64.8500 768.7022
64.8600 679.4364
64.8700 668.1578
64.8800 637.7688
64.8900 845.6692
64.9000 742.3370
64.9100 789.8738
64.9200 780.4450
64.9300 726.4702
64.9400 819.2076
64.9500 657.1944
64.9600 736.8586
64.9700 742.2682
64.9800 708.2298
64.9900 696.5066
65.0000 524.1418
65.0100 625.7156
65.0200 862.7102
65.0300 801.5596
65.0400 660.7818
65.0500 647.8988
65.0600 643.0656
65.0700 517.7326
65.0800 610.6216
65.0900 579.8616
65.1000 661.7184
65.1100 724.5044
65.1200 553.0616
65.1300 633.2386
65.1400 728.0250
65.1500 648.6968
65.1600 470.1370
65.1700 628.1882
65.1800 602.8512
65.1900 790.8838
65.2000 683.5858
65.2100 726.8664
65.2200 815.0384
65.2300 750.3764
65.2400 616.4730
65.2500 725.6314
65.2600 740.7914
65.2700 649.0688
65.2800 816.2552
65.2900 788.4704
65.3000 797.1464
65.3100 791.2726
65.3200 825.7372
65.3300 693.3686
65.3400 792.5972
65.3500 566.7138
65.3600 734.2272
65.3700 605.7964
65.3800 797.3124
65.3900 741.7908
65.4000 797.9442
65.4100 515.4312
65.4200 725.8974
65.4300 774.9802
65.4400 530.0422
65.4500 543.1460
65.4600 633.0392
65.4700 656.6576
65.4800 690.5822
65.4900 797.7732
65.5000 749.1142
65.5100 759.9168
65.5200 700.4948
65.5300 812.2690
65.5400 621.9460
65.5500 665.1028
65.5600 727.3554
65.5700 561.5766
65.5800 863.3534
65.5900 603.6262
65.6000 630.5142
65.6100 781.2304
65.6200 713.4904
65.6300 668.4758
65.6400 874.8788
65.6500 680.8006
65.6600 616.9444
65.6700 454.1882
65.6800 794.1302
65.6900 439.5500
65.7000 399.2730
65.7100 890.2800
65.7200 770.7714
65.7300 603.2988
65.7400 680.6046
65.7500 790.8258
65.7600 536.0572
65.7700 593.0926
65.7800 724.9512
65.7900 698.5706
65.8000 627.7720
65.8100 677.7010
65.8200 918.5404
65.8300 591.8554
65.8400 771.9818
65.8500 535.8838
65.8600 565.1068
65.8700 632.1354
65.8800 547.1996
65.8900 603.2730
65.9000 681.9418
65.9100 859.3898
65.9200 746.4348
65.9300 659.3084
65.9400 626.4926
65.9500 718.2918
65.9600 799.4482
65.9700 642.9706
65.9800 804.2654
65.9900 751.3266
66.0000 617.4432
66.0100 642.9182
66.0200 776.1760
66.0300 807.8680
66.0400 837.9422
66.0500 633.6038
66.0600 718.7266
66.0700 696.3508
66.0800 377.0998
66.0900 461.5518
66.1000 597.7668
66.1100 670.3814
66.1200 725.7578
66.1300 881.5628
66.1400 704.6644
66.1500 893.5328
66.1600 579.8924
66.1700 862.7812
66.1800 882.6960
66.1900 645.2868
66.2000 710.1120
66.2100 605.7082
66.2200 802.1032
66.2300 759.6614
66.2400 531.8402
66.2500 812.9318
66.2600 861.8834
66.2700 978.4634
66.2800 645.9128
66.2900 552.1738
66.3000 875.3822
66.3100 504.1448
66.3200 569.2920
66.3300 691.6016
66.3400 766.8000
66.3500 706.8902
66.3600 676.9252
66.3700 629.2172
66.3800 749.7632
66.3900 705.4840
66.4000 745.4616
66.4100 605.8830
66.4200 512.8392
66.4300 537.7356
66.4400 497.5106
66.4500 482.6210
66.4600 629.6692
66.4700 509.8756
66.4800 739.5526
66.4900 709.0414
66.5000 624.6018
66.5100 740.9402
66.5200 825.5374
66.5300 886.4942
66.5400 496.1938
66.5500 713.5138
66.5600 785.5448
66.5700 649.0008
66.5800 836.4702
66.5900 768.4088
66.6000 781.7476
66.6100 780.9358
66.6200 733.0730
66.6300 717.4306
66.6400 749.1648
66.6500 901.2126
66.6600 674.9390
66.6700 706.5364
66.6800 712.1080
66.6900 594.9404
66.7000 686.1720
66.7100 606.7640
66.7200 710.2702
66.7300 1001.1642
66.7400 727.9184
66.7500 781.4378
66.7600 596.9618
66.7700 798.2554
66.7800 603.1440
66.7900 747.2142
66.8000 818.9568
66.8100 849.6706
66.8200 1036.4212
66.8300 1103.4220
66.8400 1111.5554
66.8500 1088.5232
66.8600 946.3994
66.8700 1039.0636
66.8800 864.0192
66.8900 1001.1854
66.9000 891.0952
66.9100 976.0650
66.9200 1140.3840
66.9300 1246.1418
66.9400 1030.2212
66.9500 953.3338
66.9600 1208.2510
66.9700 1085.8058
66.9800 1014.4644
66.9900 1184.7622
67.0000 755.1938
67.0100 1126.1202
67.0200 1024.5136
67.0300 815.7526
67.0400 801.4898
67.0500 893.1240
67.0600 910.8160
67.0700 708.3128
67.0800 994.5330
67.0900 1188.4714
67.1000 1077.1556
67.1100 813.5434
67.1200 1081.2166
67.1300 1058.2574
67.1400 1001.8376
67.1500 863.8182
67.1600 734.7620
67.1700 964.4594
67.1800 883.9618
67.1900 749.6996
67.2000 844.9166
67.2100 696.9602
67.2200 819.2640
67.2300 753.8958
67.2400 697.1584
67.2500 734.8508
67.2600 684.6086
67.2700 761.7102
67.2800 686.5708
67.2900 736.0284
67.3000 690.0792
67.3100 810.4332
67.3200 752.4442
67.3300 774.5356
67.3400 892.1036
67.3500 639.7940
67.3600 499.3432
67.3700 816.0734
67.3800 852.0638
67.3900 775.4398
67.4000 916.4834
67.4100 722.4936
67.4200 658.3616
67.4300 865.8102
67.4400 688.2370
67.4500 882.0866
67.4600 877.1794
67.4700 806.5032
67.4800 761.2254
67.4900 667.0806
67.5000 649.5964
67.5100 746.2470
67.5200 847.1708
67.5300 799.9584
67.5400 699.4432
67.5500 885.8530
67.5600 745.8438
67.5700 856.4412
67.5800 758.4354
67.5900 886.4754
67.6000 811.9430
67.6100 684.4658
67.6200 622.8310
67.6300 473.3222
67.6400 670.8102
67.6500 770.4538
67.6600 773.5672
67.6700 803.4170
67.6800 733.2586
67.6900 870.2062
67.7000 536.7540
67.7100 659.8090
67.7200 667.4290
67.7300 654.8054
67.7400 761.0926
67.7500 878.1130
67.7600 752.0200
67.7700 570.4170
67.7800 640.0532
67.7900 578.5790
67.8000 693.1058
67.8100 532.4632
67.8200 613.0538
67.8300 777.3356
67.8400 773.1456
67.8500 684.1942
67.8600 799.7866
67.8700 562.0636
67.8800 532.8716
67.8900 703.6938
67.9000 401.9984
67.9100 518.2986
67.9200 601.9372
67.9300 649.0924
67.9400 843.4562
67.9500 714.1948
67.9600 637.9264
67.9700 728.8480
67.9800 864.8960
67.9900 495.3304
68.0000 482.1904
68.0100 700.0032
68.0200 728.3260
68.0300 553.5930
68.0400 697.6690
68.0500 714.0902
68.0600 653.4352
68.0700 679.6070
68.0800 558.4302
68.0900 518.7844
68.1000 592.8220
68.1100 764.3186
68.1200 866.5584
68.1300 727.9712
68.1400 396.7744
68.1500 592.7716
68.1600 494.3814
68.1700 590.3786
68.1800 791.3156
68.1900 648.4270
68.2000 671.2616
68.2100 693.1088
68.2200 661.1326
68.2300 784.3520
68.2400 722.4186
68.2500 552.9522
68.2600 552.9548
68.2700 732.1112
68.2800 534.6258
68.2900 728.6430
68.3000 627.0930
68.3100 791.7284
68.3200 864.2108
68.3300 698.9820
68.3400 678.3144
68.3500 455.3460
68.3600 612.2994
68.3700 555.7168
68.3800 694.3686
68.3900 835.2198
68.4000 596.1414
68.4100 729.2140
68.4200 878.9902
68.4300 600.1194
68.4400 619.9182
68.4500 708.3528
68.4600 677.2322
68.4700 656.2318
68.4800 688.9552
68.4900 523.2076
68.5000 604.9224
68.5100 740.8016
68.5200 516.5984
68.5300 551.1054
68.5400 677.8842
68.5500 518.3048
68.5600 853.1928
68.5700 747.9448
68.5800 757.9944
68.5900 643.0576
68.6000 644.6940
68.6100 709.9610
68.6200 433.8498
68.6300 686.0268
68.6400 523.2508
68.6500 848.2700
68.6600 902.8882
68.6700 658.6430
68.6800 752.3580
68.6900 814.8866
68.7000 723.1206
68.7100 815.1152
68.7200 822.9708
68.7300 772.5604
68.7400 1012.5898
68.7500 893.8414
68.7600 892.4064
68.7700 1023.9822
68.7800 925.6088
68.7900 1105.0138
68.8000 1067.5956
68.8100 1088.4476
68.8200 1040.5936
68.8300 1137.3410
68.8400 1124.5012
68.8500 1095.7974
68.8600 805.2296
68.8700 1049.5326
68.8800 1009.5006
68.8900 949.5748
68.9000 792.3550
68.9100 902.4578
68.9200 885.0626
68.9300 858.7946
68.9400 790.1200
68.9500 807.2012
68.9600 923.0806
68.9700 923.2580
68.9800 1246.3390
68.9900 1186.0290
69.0000 1026.6130
69.0100 953.1374
69.0200 1139.5790
69.0300 764.5088
69.0400 920.9490
69.0500 1001.9744
69.0600 931.2696
69.0700 815.8694
69.0800 796.3852
69.0900 807.7776
69.1000 690.8722
69.1100 692.9142
69.1200 903.5648
69.1300 667.5152
69.1400 617.8930
69.1500 669.8268
69.1600 674.5162
69.1700 538.7106
69.1800 559.4036
69.1900 518.2278
69.2000 806.0942
69.2100 626.0336
69.2200 795.4848
69.2300 537.7822
69.2400 545.3286
69.2500 806.8696
69.2600 733.4312
69.2700 840.8776
69.2800 679.6098
69.2900 630.3160
69.3000 608.8130
69.3100 636.0334
69.3200 696.7388
69.3300 814.9432
69.3400 865.5888
69.3500 488.7226
69.3600 495.4654
69.3700 583.6820
69.3800 502.3834
69.3900 686.1114
69.4000 563.2974
69.4100 527.0576
69.4200 481.4402
69.4300 541.7526
69.4400 576.2866
69.4500 524.4846
69.4600 647.5434
69.4700 543.5904
69.4800 676.8684
69.4900 605.2434
69.5000 581.3312
69.5100 654.4036
69.5200 556.7226
69.5300 672.1838
69.5400 563.4100
69.5500 717.4378
69.5600 638.8416
69.5700 530.3204
69.5800 875.2224
69.5900 618.2858
69.6000 639.7522
69.6100 552.2148
69.6200 654.2738
69.6300 571.4488
69.6400 593.7102
69.6500 590.7544
69.6600 679.1752
69.6700 715.4662
69.6800 644.8426
69.6900 575.9106
69.7000 654.3140
69.7100 557.5238
69.7200 531.3038
69.7300 590.8446
69.7400 478.1746
69.7500 649.1712
69.7600 577.6932
69.7700 606.7716
69.7800 365.6562
69.7900 563.9992
69.8000 695.9628
69.8100 587.2884
69.8200 480.5006
69.8300 511.7772
69.8400 574.5506
69.8500 387.5784
69.8600 437.1252
69.8700 534.0438
69.8800 489.2998
69.8900 542.0110
69.9000 663.6176
69.9100 571.0374
69.9200 567.2034
69.9300 650.7854
69.9400 470.3618
69.9500 328.6374
69.9600 523.3162
69.9700 547.2728
69.9800 635.4862
69.9900 507.0348
70.0000 634.3490
70.0100 549.0680
70.0200 459.5988
70.0300 542.2628
70.0400 707.7670
70.0500 686.9202
70.0600 712.0444
70.0700 760.5108
70.0800 706.0776
70.0900 357.7446
70.1000 551.6470
70.1100 606.6292
70.1200 697.3616
70.1300 820.0010
70.1400 733.3422
70.1500 614.2668
70.1600 465.9358
70.1700 570.0460
70.1800 561.1116
70.1900 598.1880
70.2000 512.3546
70.2100 682.7882
70.2200 775.0760
70.2300 793.5736
70.2400 482.4088
70.2500 525.3660
70.2600 615.2986
70.2700 431.0002
70.2800 532.7502
70.2900 445.8174
70.3000 417.8314
70.3100 512.1826
70.3200 661.3836
70.3300 749.0954
70.3400 548.8160
70.3500 690.5710
70.3600 485.6144
70.3700 750.2658
70.3800 446.3742
70.3900 576.8748
70.4000 374.0008
70.4100 672.7216
70.4200 748.2088
70.4300 508.2684
70.4400 573.8368
70.4500 433.4504
70.4600 589.9564
70.4700 579.3600
70.4800 504.9822
70.4900 552.5904
70.5000 776.0704
70.5100 607.6978
70.5200 787.3482
70.5300 449.8530
70.5400 620.7186
70.5500 671.4404
70.5600 534.4378
70.5700 894.4324
70.5800 627.4710
70.5900 709.0754
70.6000 783.9550
70.6100 584.5480
70.6200 582.9534
70.6300 658.4988
70.6400 577.0088
70.6500 745.2012
70.6600 805.9014
70.6700 592.7742
70.6800 692.8614
70.6900 488.3514
70.7000 451.0726
70.7100 535.7824
70.7200 632.2556
70.7300 609.0946
70.7400 668.6918
70.7500 591.6064
70.7600 746.6188
70.7700 559.3956
70.7800 641.1198
70.7900 554.8330
70.8000 751.0810
70.8100 595.9780
70.8200 598.8452
70.8300 765.5050
70.8400 559.1406
70.8500 601.3414
70.8600 557.4014
70.8700 552.9234
70.8800 638.3070
70.8900 739.1626
70.9000 552.8722
70.9100 527.0638
70.9200 693.9896
70.9300 574.3892
70.9400 613.0930
70.9500 627.4472
70.9600 723.2698
70.9700 753.6970
70.9800 438.3984
70.9900 454.8524
71.0000 470.9396
71.0100 513.8610
71.0200 417.0062
71.0300 308.0414
71.0400 527.4458
71.0500 687.4214
71.0600 546.7904
71.0700 517.2920
71.0800 650.0380
71.0900 460.5588
71.1000 629.5916
71.1100 658.0094
71.1200 584.3698
71.1300 379.9546
71.1400 437.4964
71.1500 518.8414
71.1600 660.3898
71.1700 595.2144
71.1800 479.3534
71.1900 902.7630
71.2000 713.6730
71.2100 611.1552
71.2200 570.1350
71.2300 455.6694
71.2400 474.1258
71.2500 562.2838
71.2600 781.3586
71.2700 825.5706
71.2800 890.2112
71.2900 799.3778
71.3000 530.8040
71.3100 578.1372
71.3200 643.4482
71.3300 738.2688
71.3400 795.0416
71.3500 519.8792
71.3600 444.8482
71.3700 562.5854
71.3800 502.0760
71.3900 511.6934
71.4000 635.7910
71.4100 627.7250
71.4200 483.2324
71.4300 562.4570
71.4400 534.9620
71.4500 668.8034
71.4600 634.7712
71.4700 760.7136
71.4800 498.8366
71.4900 476.4196
71.5000 685.7074
71.5100 715.4442
71.5200 891.1226
71.5300 488.0576
71.5400 498.7026
71.5500 542.2272
71.5600 608.7348
71.5700 473.1556
71.5800 391.0444
71.5900 447.8390
71.6000 522.4844
71.6100 540.9458
71.6200 614.0008
71.6300 710.1222
71.6400 612.2678
71.6500 306.0414
71.6600 537.3202
71.6700 593.2700
71.6800 393.3990
71.6900 568.6434
71.7000 781.0398
71.7100 671.9580
71.7200 560.7536
71.7300 500.8774
71.7400 423.3776
71.7500 676.4322
71.7600 550.1878
71.7700 516.3856
71.7800 330.9224
71.7900 539.5944
71.8000 642.0714
71.8100 535.6224
71.8200 469.8870
71.8300 668.7018
71.8400 451.1410
71.8500 552.6198
71.8600 828.7464
71.8700 580.4356
71.8800 593.5226
71.8900 551.1756
71.9000 539.2840
71.9100 587.6900
71.9200 553.5140
71.9300 499.3900
71.9400 292.7268
71.9500 479.4344
71.9600 746.2140
71.9700 756.7254
71.9800 485.9038
71.9900 679.0590
72.0000 432.8178
72.0100 658.3752
72.0200 552.9352
72.0300 484.1168
72.0400 436.6328
72.0500 525.0158
72.0600 346.6424
72.0700 618.6500
72.0800 780.7642
72.0900 529.7622
72.1000 490.8334
72.1100 518.0768
72.1200 1079.7406
72.1300 709.1492
72.1400 445.5812
72.1500 512.2014
72.1600 558.2630
72.1700 386.8730
72.1800 632.9390
72.1900 538.9174
72.2000 652.1870
72.2100 375.6922
72.2200 359.4682
72.2300 613.6946
72.2400 358.5688
72.2500 551.2408
72.2600 482.1142
72.2700 690.4310
72.2800 646.5508
72.2900 727.6584
72.3000 556.5436
72.3100 556.5672
72.3200 513.1138
72.3300 618.5058
72.3400 623.5138
72.3500 571.0102
72.3600 514.5334
72.3700 451.3086
72.3800 502.2440
72.3900 501.0542
72.4000 503.1436
72.4100 501.7910
72.4200 690.6622
72.4300 658.5214
72.4400 482.5480
72.4500 622.6898
72.4600 676.0492
72.4700 468.1772
72.4800 468.8136
72.4900 578.9422
72.5000 413.3232
72.5100 562.1464
72.5200 597.5726
72.5300 559.2618
72.5400 721.8908
72.5500 447.4306
72.5600 449.0248
72.5700 613.3416
72.5800 641.5392
72.5900 717.9806
72.6000 685.1280
72.6100 617.6542
72.6200 771.9958
72.6300 662.7290
72.6400 458.2106
72.6500 541.1284
72.6600 586.8476
72.6700 623.1946
72.6800 529.2202
72.6900 548.7736
72.7000 598.6204
72.7100 494.6696
72.7200 400.2040
72.7300 600.2502
72.7400 688.5900
72.7500 465.3930
72.7600 596.7658
72.7700 687.2830
72.7800 449.1052
72.7900 550.1342
72.8000 473.6970
72.8100 657.9286
72.8200 592.5786
72.8300 480.4426
72.8400 556.3590
72.8500 615.3440
72.8600 685.0896
72.8700 726.0118
72.8800 504.5490
72.8900 617.9968
72.9000 429.3108
72.9100 576.2134
72.9200 607.8910
72.9300 381.0976
72.9400 762.5276
72.9500 791.8972
72.9600 549.4470
72.9700 531.3328
72.9800 730.8686
72.9900 383.9130
73.0000 556.6510
73.0100 519.7464
73.0200 730.3036
73.0300 573.0224
73.0400 757.6318
73.0500 351.3880
73.0600 334.3290
73.0700 507.1040
73.0800 606.8156
73.0900 570.4904
73.1000 831.3372
73.1100 581.7516
73.1200 747.6728
73.1300 342.1106
73.1400 613.5632
73.1500 767.2628
73.1600 667.1120
73.1700 553.1278
73.1800 671.2484
73.1900 569.5698
73.2000 635.2378
73.2100 541.0940
73.2200 615.5476
73.2300 516.2648
73.2400 446.5466
73.2500 600.6502
73.2600 649.7614
73.2700 508.3764
73.2800 471.8908
73.2900 744.5816
73.3000 473.7204
73.3100 695.0138
73.3200 541.1632
73.3300 553.4904
73.3400 507.0110
73.3500 659.7254
73.3600 609.0776
73.3700 443.2962
73.3800 401.2638
73.3900 581.7956
73.4000 566.9702
73.4100 575.6672
73.4200 436.1870
73.4300 664.7684
73.4400 551.8148
73.4500 529.0364
73.4600 695.2262
73.4700 824.9730
73.4800 563.4874
73.4900 518.4110
73.5000 444.8988
73.5100 409.2624
73.5200 394.3754
73.5300 527.4602
73.5400 815.4496
73.5500 683.8622
73.5600 780.2172
73.5700 586.2696
73.5800 448.9000
73.5900 435.6164
73.6000 550.1246
73.6100 765.2760
73.6200 571.7660
73.6300 709.8950
73.6400 667.8594
73.6500 567.1142
73.6600 519.5028
73.6700 632.0526
73.6800 667.6184
73.6900 679.6200
73.7000 615.6786
73.7100 348.7698
73.7200 498.5418
73.7300 661.4146
73.7400 492.6012
73.7500 665.0870
73.7600 765.3132
73.7700 523.2626
73.7800 679.2840
73.7900 565.3896
73.8000 469.9540
73.8100 618.4366
73.8200 593.4272
73.8300 534.3924
73.8400 514.6640
73.8500 533.1492
73.8600 521.1736
73.8700 439.1202
73.8800 432.4936
73.8900 527.9674
73.9000 553.5034
73.9100 497.7278
73.9200 662.2146
73.9300 489.4870
73.9400 394.6898
73.9500 447.7618
73.9600 577.2922
73.9700 653.0200
73.9800 564.7218
73.9900 545.8238
74.0000 520.2016
74.0100 586.6242
74.0200 656.4938
74.0300 740.1470
74.0400 701.7048
74.0500 690.6364
74.0600 563.9532
74.0700 701.2036
74.0800 670.5566
74.0900 589.6146
74.1000 506.1172
74.1100 617.5936
74.1200 479.7812
74.1300 491.6084
74.1400 677.3780
74.1500 648.8520
74.1600 567.9882
74.1700 553.3660
74.1800 507.1812
74.1900 512.8302
74.2000 767.8046
74.2100 812.0128
74.2200 676.9476
74.2300 530.1592
74.2400 559.3984
74.2500 563.1170
74.2600 786.9952
74.2700 705.4412
74.2800 814.3036
74.2900 635.3742
74.3000 939.9320
74.3100 743.9086
74.3200 663.0636
74.3300 673.2018
74.3400 821.6342
74.3500 565.6182
74.3600 660.8516
74.3700 666.6392
74.3800 606.8802
74.3900 769.1840
74.4000 691.3976
74.4100 614.9672
74.4200 559.9858
74.4300 774.4300
74.4400 774.4234
74.4500 424.4944
74.4600 639.4350
74.4700 725.0610
74.4800 629.1184
74.4900 533.8654
74.5000 880.6328
74.5100 525.2774
74.5200 700.1846
74.5300 525.1600
74.5400 720.7094
74.5500 628.1524
74.5600 727.8944
74.5700 492.8162
74.5800 805.2982
74.5900 832.4012
74.6000 712.5336
74.6100 806.1820
74.6200 685.0208
74.6300 744.4760
74.6400 606.9798
74.6500 743.8282
74.6600 778.6562
74.6700 763.5386
74.6800 650.2708
74.6900 500.1280
74.7000 676.4438
74.7100 510.8008
74.7200 523.4870
74.7300 415.5808
74.7400 612.6852
74.7500 589.1748
74.7600 619.0036
74.7700 634.4726
74.7800 590.8658
74.7900 736.6348
74.8000 589.6876
74.8100 486.1676
74.8200 725.3012
74.8300 623.6324
74.8400 568.5760
74.8500 399.4440
74.8600 478.4314
74.8700 633.0252
74.8800 594.0616
74.8900 760.6190
74.9000 486.8098
74.9100 578.8276
74.9200 443.7096
74.9300 644.1642
74.9400 431.3798
74.9500 503.8718
74.9600 492.1122
74.9700 477.3714
74.9800 547.6624
74.9900 615.4114
75.0000 590.8662
75.0100 628.7158
75.0200 439.5300
75.0300 446.7930
75.0400 543.1464
75.0500 434.1600
75.0600 744.0918
75.0700 586.7692
75.0800 457.1252
75.0900 465.6832
75.1000 576.7612
75.1100 424.7932
75.1200 485.6018
75.1300 556.4998
75.1400 612.4592
75.1500 566.8120
75.1600 437.9326
75.1700 432.5664
75.1800 649.0672
75.1900 464.1622
75.2000 617.2600
75.2100 698.8452
75.2200 488.4820
75.2300 581.7296
75.2400 427.1292
75.2500 419.4106
75.2600 346.0434
75.2700 469.3234
75.2800 680.3490
75.2900 589.3154
75.3000 474.7546
75.3100 468.5572
75.3200 540.4708
75.3300 748.1506
75.3400 627.5720
75.3500 650.3042
75.3600 440.8036
75.3700 648.8864
75.3800 462.9356
75.3900 571.9638
75.4000 420.7530
75.4100 543.8552
75.4200 404.8370
75.4300 589.1584
75.4400 438.5932
75.4500 670.4604
75.4600 464.2258
75.4700 548.1572
75.4800 410.2292
75.4900 438.5048
75.5000 589.3528
75.5100 531.2632
75.5200 469.2954
75.5300 425.1784
75.5400 630.4236
75.5500 452.0258
75.5600 642.9546
75.5700 560.8116
75.5800 491.4422
75.5900 640.9066
75.6000 629.3444
75.6100 583.2392
75.6200 571.4418
75.6300 623.7444
75.6400 669.4246
75.6500 591.2932
75.6600 560.2764
75.6700 353.7186
75.6800 444.7968
75.6900 639.0726
75.7000 658.3340
75.7100 542.4216
75.7200 618.3814
75.7300 585.5756
75.7400 492.7034
75.7500 464.4844
75.7600 602.2552
75.7700 576.4756
75.7800 582.6712
75.7900 520.8350
75.8000 491.3592
75.8100 532.2398
75.8200 573.1922
75.8300 701.9378
75.8400 614.5304
75.8500 572.0550
75.8600 599.5006
75.8700 630.6692
75.8800 542.7936
75.8900 839.2498
75.9000 610.1008
75.9100 667.7230
75.9200 546.5082
75.9300 637.2598
75.9400 540.1428
75.9500 666.4176
75.9600 583.4844
75.9700 540.6704
75.9800 613.9150
75.9900 575.2394
76.0000 670.6816
76.0100 766.9568
76.0200 593.9366
76.0300 475.4406
76.0400 685.1816
76.0500 519.8256
76.0600 682.4292
76.0700 528.1326
76.0800 456.1904
76.0900 577.6262
76.1000 673.7802
76.1100 674.6010
76.1200 503.3748
76.1300 457.4630
76.1400 510.5946
76.1500 653.7172
76.1600 707.1010
76.1700 683.0198
76.1800 634.7498
76.1900 612.3500
76.2000 662.8720
76.2100 524.0016
76.2200 635.3956
76.2300 932.2948
76.2400 572.0256
76.2500 509.7618
76.2600 414.2130
76.2700 530.9312
76.2800 659.8028
76.2900 707.2754
76.3000 721.1804
76.3100 418.1758
76.3200 435.2006
76.3300 784.4776
76.3400 796.4666
76.3500 611.2990
76.3600 531.5246
76.3700 739.8740
76.3800 512.0194
76.3900 587.3418
76.4000 630.4296
76.4100 599.5840
76.4200 723.5332
76.4300 728.1532
76.4400 470.6758
76.4500 491.2762
76.4600 621.6758
76.4700 396.3970
76.4800 546.1798
76.4900 372.3334
76.5000 399.8504
76.5100 423.6758
76.5200 449.0750
76.5300 735.6062
76.5400 502.9766
76.5500 432.2430
76.5600 272.0420
76.5700 491.1548
76.5800 563.2130
76.5900 430.6904
76.6000 566.8576
76.6100 604.7512
76.6200 572.4980
76.6300 539.5814
76.6400 389.4510
76.6500 357.0316
76.6600 426.8178
76.6700 451.7410
76.6800 465.9924
76.6900 482.8186
76.7000 518.3202
76.7100 574.9886
76.7200 572.4104
76.7300 526.3674
76.7400 423.0944
76.7500 464.0178
76.7600 588.7000
76.7700 470.5350
76.7800 445.3730
76.7900 416.2870
76.8000 347.6064
76.8100 503.6128
76.8200 591.8644
76.8300 400.9148
76.8400 415.4646
76.8500 450.3124
76.8600 512.5114
76.8700 338.8450
76.8800 502.7398
76.8900 431.5496
76.9000 575.5138
76.9100 574.6228
76.9200 622.3196
76.9300 515.7102
76.9400 610.9368
76.9500 542.5872
76.9600 400.1656
76.9700 541.7416
76.9800 429.8918
76.9900 671.9332
77.0000 528.0254
77.0100 768.6280
77.0200 641.2924
77.0300 574.1686
77.0400 469.9812
77.0500 504.0868
77.0600 589.7036
77.0700 543.8450
77.0800 455.2538
77.0900 800.4694
77.1000 639.9950
77.1100 552.7660
77.1200 440.7828
77.1300 500.5092
77.1400 548.0368
77.1500 588.3204
77.1600 643.9490
77.1700 379.0052
77.1800 660.4504
77.1900 723.6802
77.2000 537.3810
77.2100 459.2054
77.2200 435.0826
77.2300 557.9844
77.2400 570.7084
77.2500 572.2222
77.2600 620.3628
77.2700 539.6884
77.2800 381.7516
77.2900 592.4246
77.3000 569.2436
77.3100 533.8642
77.3200 513.7526
77.3300 647.8900
77.3400 459.7070
77.3500 473.5192
77.3600 412.6806
77.3700 518.6770
77.3800 639.0032
77.3900 475.1836
77.4000 569.1114
77.4100 498.0354
77.4200 528.6012
77.4300 555.3088
77.4400 702.1332
77.4500 488.8358
77.4600 505.1924
77.4700 599.0774
77.4800 602.5510
77.4900 670.6276
77.5000 491.2170
77.5100 587.4432
77.5200 422.3906
77.5300 552.8440
77.5400 596.5174
77.5500 500.4338
77.5600 518.3458
77.5700 447.1584
77.5800 619.2104
77.5900 642.4472
77.6000 603.5570
77.6100 504.3562
77.6200 640.2614
77.6300 596.0398
77.6400 411.4158
77.6500 499.6434
77.6600 265.9652
77.6700 563.1634
77.6800 484.7840
77.6900 536.5160
77.7000 371.2638
77.7100 399.3420
77.7200 485.4424
77.7300 525.9806
77.7400 423.8016
77.7500 597.5558
77.7600 503.1320
77.7700 443.3856
77.7800 404.1164
77.7900 519.3596
77.8000 492.0656
77.8100 307.4698
77.8200 689.0208
77.8300 538.6844
77.8400 409.0110
77.8500 497.5834
77.8600 441.4276
77.8700 494.8720
77.8800 666.7398
77.8900 648.7238
77.9000 566.0220
77.9100 472.6140
77.9200 651.1376
77.9300 512.0498
77.9400 614.1862
77.9500 517.7754
77.9600 566.1174
77.9700 632.8816
77.9800 536.8394
77.9900 584.1684
78.0000 525.3884
78.0100 610.4598
78.0200 648.5476
78.0300 643.4954
78.0400 571.0550
78.0500 597.7428
78.0600 551.4156
78.0700 572.9758
78.0800 737.1346
78.0900 557.7804
78.1000 354.2362
78.1100 423.4412
78.1200 561.3716
78.1300 657.7746
78.1400 461.9936
78.1500 617.3452
78.1600 459.5992
78.1700 533.2480
78.1800 647.0436
78.1900 507.5550
78.2000 670.9722
78.2100 472.7658
78.2200 561.8518
78.2300 596.9240
78.2400 571.1608
78.2500 508.1268
78.2600 377.4584
78.2700 550.4238
78.2800 740.3176
78.2900 532.1414
78.3000 498.3404
78.3100 430.7946
78.3200 395.4130
78.3300 533.9234
78.3400 466.3598
78.3500 518.6348
78.3600 305.7154
78.3700 662.8742
78.3800 523.4466
78.3900 539.3946
78.4000 471.9456
78.4100 657.2750
78.4200 585.4328
78.4300 660.5902
78.4400 577.4046
78.4500 433.4342
78.4600 447.6292
78.4700 451.6492
78.4800 595.2242
78.4900 464.6700
78.5000 694.7940
78.5100 443.3396
78.5200 533.1354
78.5300 576.6268
78.5400 470.1250
78.5500 643.8632
78.5600 600.3734
78.5700 598.6876
78.5800 437.5194
78.5900 554.5808
78.6000 423.6776
78.6100 484.6890
78.6200 541.6336
78.6300 447.3148
78.6400 500.3272
78.6500 616.6018
78.6600 654.2688
78.6700 467.9044
78.6800 516.2344
78.6900 536.5644
78.7000 631.7072
78.7100 336.3084
78.7200 595.8906
78.7300 450.6066
78.7400 572.2520
78.7500 707.8974
78.7600 521.3506
78.7700 416.2758
78.7800 350.3692
78.7900 467.2056
78.8000 587.5068
78.8100 344.9496
78.8200 406.1134
78.8300 493.2216
78.8400 360.0164
78.8500 436.9412
78.8600 457.2980
78.8700 818.7842
78.8800 388.7916
78.8900 385.8906
78.9000 368.2088
78.9100 326.5834
78.9200 437.2278
78.9300 373.2088
78.9400 311.7500
78.9500 343.4158
78.9600 454.5874
78.9700 457.8450
78.9800 373.4342
78.9900 329.8752
79.0000 452.3390
79.0100 515.2282
79.0200 524.6110
79.0300 572.9206
79.0400 436.7306
79.0500 573.0000
79.0600 515.7804
79.0700 483.4298
79.0800 581.1232
79.0900 499.7598
79.1000 390.2490
79.1100 589.5936
79.1200 534.9636
79.1300 525.0652
79.1400 445.0960
79.1500 311.3480
79.1600 440.8692
79.1700 395.6094
79.1800 427.1698
79.1900 753.7804
79.2000 554.6796
79.2100 507.8402
79.2200 448.9290
79.2300 458.8732
79.2400 472.2248
79.2500 592.6522
79.2600 581.3086
79.2700 534.0014
79.2800 445.5028
79.2900 459.9212
79.3000 423.6726
79.3100 572.4656
79.3200 456.0914
79.3300 482.0216
79.3400 579.0920
79.3500 556.5092
79.3600 392.4176
79.3700 480.1960
79.3800 425.1088
79.3900 469.7628
79.4000 469.8168
79.4100 436.4286
79.4200 546.5020
79.4300 464.0574
79.4400 504.2342
79.4500 484.4512
79.4600 686.3906
79.4700 411.6820
79.4800 427.8598
79.4900 473.0364
79.5000 506.3768
79.5100 358.7014
79.5200 704.2632
79.5300 303.6254
79.5400 314.6632
79.5500 419.8040
79.5600 441.6584
79.5700 366.4504
79.5800 402.7034
79.5900 391.9950
79.6000 492.2116
79.6100 446.0586
79.6200 378.9824
79.6300 312.9524
79.6400 493.7046
79.6500 545.1394
79.6600 512.2878
79.6700 418.8742
79.6800 503.2122
79.6900 474.9124
79.7000 281.4366
79.7100 377.6858
79.7200 338.0484
79.7300 405.2926
79.7400 607.8908
79.7500 528.1514
79.7600 496.7740
79.7700 337.2388
79.7800 467.1454
79.7900 410.3694
79.8000 568.7738
79.8100 680.7086
79.8200 520.6734
79.8300 474.5608
79.8400 536.1254
79.8500 432.1690
79.8600 522.4394
79.8700 504.4170
79.8800 328.3536
79.8900 321.3426
79.9000 456.6888
79.9100 255.3486
79.9200 529.7550
79.9300 546.6744
79.9400 363.5894
79.9500 343.5678
79.9600 350.2960
79.9700 294.0028
79.9800 653.5420
79.9900 616.4642
80.0000 551.2890
80.0100 506.0762
80.0200 540.4170
80.0300 529.7422
80.0400 503.5972
80.0500 478.5570
80.0600 486.5968
80.0700 772.8736
80.0800 550.1284
80.0900 598.4238
80.1000 453.0094
80.1100 559.7954
80.1200 440.5996
80.1300 367.3304
80.1400 664.3720
80.1500 432.1262
80.1600 488.2594
80.1700 441.4056
80.1800 453.2120
80.1900 563.1672
80.2000 390.9712
80.2100 401.2882
80.2200 417.7078
80.2300 569.2786
80.2400 306.7426
80.2500 409.5974
80.2600 505.3204
80.2700 466.7336
80.2800 391.4326
80.2900 410.7804
80.3000 478.1050
80.3100 342.3590
80.3200 438.4882
80.3300 482.0812
80.3400 550.4256
80.3500 307.4598
80.3600 328.4100
80.3700 327.3116
80.3800 572.0516
80.3900 520.4972
80.4000 373.3910
80.4100 387.5074
80.4200 496.7276
80.4300 559.1442
80.4400 324.4040
80.4500 391.9206
80.4600 555.9888
80.4700 433.8262
80.4800 447.2716
80.4900 521.4164
80.5000 473.1940
80.5100 463.6566
80.5200 626.5966
80.5300 433.1174
80.5400 436.4734
80.5500 458.2296
80.5600 467.4916
80.5700 397.2542
80.5800 644.7874
80.5900 516.5876
80.6000 434.8772
80.6100 450.7066
80.6200 457.3002
80.6300 379.7986
80.6400 407.8320
80.6500 497.8818
80.6600 432.3246
80.6700 541.1902
80.6800 216.8786
80.6900 499.8388
80.7000 401.3830
80.7100 419.8054
80.7200 493.2344
80.7300 263.1616
80.7400 402.4380
80.7500 508.5624
80.7600 523.9374
80.7700 569.2068
80.7800 300.5344
80.7900 522.9782
80.8000 544.5076
80.8100 653.3724
80.8200 413.5508
80.8300 370.3086
80.8400 584.9802
80.8500 417.7798
80.8600 502.0816
80.8700 372.3270
80.8800 319.4446
80.8900 404.7190
80.9000 198.6092
80.9100 425.1564
80.9200 366.8540
80.9300 389.8958
80.9400 567.9282
80.9500 496.0920
80.9600 545.7132
80.9700 369.9206
80.9800 456.1138
80.9900 491.4138
81.0000 374.8454
81.0100 405.1198
81.0200 476.0254
81.0300 781.9592
81.0400 676.8116
81.0500 437.4852
81.0600 573.4012
81.0700 461.2896
81.0800 446.1578
81.0900 444.4072
81.1000 438.8896
81.1100 528.3272
81.1200 593.1566
81.1300 474.1694
81.1400 572.6830
81.1500 565.7604
81.1600 397.0228
81.1700 595.2454
81.1800 460.8798
81.1900 295.9002
81.2000 538.0632
81.2100 495.9038
81.2200 639.2306
81.2300 473.3152
81.2400 533.1456
81.2500 553.2944
81.2600 570.4686
81.2700 563.0206
81.2800 455.5924
81.2900 517.6806
81.3000 505.6014
81.3100 529.5750
81.3200 540.7408
81.3300 422.4580
81.3400 373.0874
81.3500 420.0252
81.3600 433.9064
81.3700 429.9176
81.3800 394.0488
81.3900 510.0392
81.4000 659.2234
81.4100 524.6570
81.4200 622.0796
81.4300 451.1450
81.4400 425.0662
81.4500 492.1000
81.4600 365.4974
81.4700 636.7614
81.4800 420.6446
81.4900 422.8894
81.5000 466.5984
81.5100 443.9036
81.5200 498.3704
81.5300 281.2482
81.5400 414.6336
81.5500 605.3296
81.5600 293.7344
81.5700 407.0138
81.5800 471.7124
81.5900 342.5942
81.6000 533.5444
81.6100 502.7396
81.6200 574.7670
81.6300 470.8900
81.6400 572.8516
81.6500 371.8528
81.6600 511.9208
81.6700 383.1144
81.6800 350.2958
81.6900 437.2736
81.7000 447.0436
81.7100 580.4000
81.7200 563.8934
81.7300 393.7990
81.7400 436.6846
81.7500 492.2578
81.7600 448.5908
81.7700 391.9756
81.7800 446.1490
81.7900 626.3162
81.8000 348.3828
81.8100 424.9788
81.8200 616.7322
81.8300 409.9592
81.8400 287.5004
81.8500 459.9352
81.8600 434.3366
81.8700 371.0286
81.8800 560.7680
81.8900 614.2694
81.9000 462.8684
81.9100 304.9438
81.9200 479.0360
81.9300 362.6716
81.9400 464.0586
81.9500 636.5520
81.9600 467.6508
81.9700 692.2812
81.9800 575.4328
81.9900 483.5634
82.0000 517.4030
82.0100 391.3122
82.0200 580.2962
82.0300 308.5698
82.0400 619.5850
82.0500 419.9040
82.0600 333.6982
82.0700 455.4774
82.0800 458.8130
82.0900 537.3918
82.1000 518.2218
82.1100 511.9466
82.1200 412.0892
82.1300 356.1170
82.1400 411.4488
82.1500 445.0668
82.1600 576.4830
82.1700 497.1752
82.1800 487.0250
82.1900 417.8160
82.2000 543.9334
82.2100 493.7468
82.2200 420.1192
82.2300 432.7424
82.2400 323.6496
82.2500 730.9194
82.2600 645.1360
82.2700 445.7532
82.2800 321.5506
82.2900 450.8194
82.3000 486.9336
82.3100 596.1370
82.3200 433.6454
82.3300 484.8242
82.3400 493.3328
82.3500 490.9700
82.3600 601.7310
82.3700 429.0808
82.3800 514.8364
82.3900 584.3436
82.4000 386.9588
82.4100 448.7900
82.4200 357.2676
82.4300 610.3504
82.4400 494.4158
82.4500 613.0682
82.4600 640.0772
82.4700 708.0118
82.4800 563.4982
82.4900 441.5610
82.5000 592.8644
82.5100 702.3852
82.5200 462.4754
82.5300 400.6708
82.5400 385.7876
82.5500 349.5852
82.5600 463.9594
82.5700 398.2490
82.5800 388.0648
82.5900 452.3638
82.6000 534.1412
82.6100 628.1036
82.6200 482.7860
82.6300 596.0542
82.6400 572.0564
82.6500 636.8274
82.6600 636.0086
82.6700 566.7538
82.6800 451.0096
82.6900 499.6962
82.7000 593.8894
82.7100 403.7506
82.7200 410.4916
82.7300 498.8548
82.7400 508.3410
82.7500 634.7798
82.7600 406.2974
82.7700 526.3208
82.7800 482.4652
82.7900 359.9212
82.8000 389.2180
82.8100 445.4090
82.8200 463.4176
82.8300 557.0048
82.8400 695.9938
82.8500 541.2920
82.8600 286.2364
82.8700 567.2722
82.8800 500.2774
82.8900 335.7478
82.9000 364.5530
82.9100 424.0324
82.9200 434.6722
82.9300 414.7780
82.9400 595.0742
82.9500 485.4232
82.9600 592.9214
82.9700 611.6784
82.9800 475.9996
82.9900 529.0880
83.0000 508.4038
83.0100 434.9776
83.0200 524.1808
83.0300 638.7858
83.0400 504.7892
83.0500 647.3424
83.0600 713.2300
83.0700 530.2540
83.0800 434.4326
83.0900 479.6280
83.1000 494.0884
83.1100 373.2002
83.1200 394.2566
83.1300 639.6684
83.1400 386.3542
83.1500 713.4004
83.1600 679.1400
83.1700 413.6620
83.1800 492.9714
83.1900 632.8760
83.2000 480.7630
83.2100 532.9654
83.2200 556.8134
83.2300 512.2650
83.2400 564.3984
83.2500 495.3770
83.2600 561.7658
83.2700 584.7526
83.2800 479.7232
83.2900 556.4242
83.3000 656.5104
83.3100 557.4360
83.3200 472.4160
83.3300 667.0400
83.3400 543.6898
83.3500 491.1848
83.3600 604.0564
83.3700 537.8438
83.3800 677.9484
83.3900 315.1030
83.4000 491.0268
83.4100 529.0638
83.4200 385.2616
83.4300 511.1176
83.4400 546.3990
83.4500 527.8672
83.4600 632.5952
83.4700 793.8874
83.4800 350.3466
83.4900 354.9374
83.5000 331.3452
83.5100 541.2118
83.5200 278.9816
83.5300 432.1182
83.5400 366.2790
83.5500 502.2344
83.5600 457.7612
83.5700 460.7318
83.5800 391.7128
83.5900 554.3242
83.6000 490.5396
83.6100 307.2354
83.6200 475.9158
83.6300 459.2032
83.6400 429.4516
83.6500 392.9238
83.6600 379.5438
83.6700 490.1956
83.6800 448.0256
83.6900 353.3016
83.7000 396.8552
83.7100 416.0934
83.7200 273.0632
83.7300 612.6306
83.7400 643.6420
83.7500 512.0710
83.7600 461.9644
83.7700 369.9446
83.7800 366.0636
83.7900 505.0822
83.8000 546.2464
83.8100 427.0652
83.8200 407.8600
83.8300 518.6454
83.8400 436.3930
83.8500 600.5474
83.8600 462.6184
83.8700 669.5592
83.8800 461.0658
83.8900 481.5782
83.9000 377.1426
83.9100 535.5296
83.9200 443.2404
83.9300 542.6960
83.9400 404.3206
83.9500 329.5350
83.9600 393.7024
83.9700 498.2148
83.9800 270.3816
83.9900 469.6298
84.0000 265.7892
84.0100 492.8834
84.0200 421.2666
84.0300 324.3300
84.0400 468.3622
84.0500 654.1622
84.0600 589.0990
84.0700 364.1606
84.0800 424.7458
84.0900 474.1618
84.1000 286.5248
84.1100 358.4114
84.1200 392.3088
84.1300 316.0912
84.1400 369.4706
84.1500 349.0104
84.1600 366.2070
84.1700 395.7788
84.1800 413.9824
84.1900 392.9692
84.2000 294.3032
84.2100 349.8530
84.2200 557.0576
84.2300 283.4904
84.2400 310.7856
84.2500 386.4748
84.2600 460.6304
84.2700 399.1182
84.2800 454.7698
84.2900 453.2486
84.3000 231.2836
84.3100 425.6762
84.3200 374.1752
84.3300 463.3462
84.3400 337.4422
84.3500 426.6036
84.3600 344.8216
84.3700 452.8896
84.3800 385.8386
84.3900 299.9124
84.4000 422.5534
84.4100 609.5134
84.4200 417.3630
84.4300 422.1426
84.4400 393.7396
84.4500 407.7332
84.4600 440.3100
84.4700 512.2550
84.4800 517.1024
84.4900 678.5632
84.5000 501.7502
84.5100 303.6362
84.5200 497.5448
84.5300 554.3986
84.5400 516.0616
84.5500 274.4602
84.5600 450.4696
84.5700 500.2824
84.5800 658.9284
84.5900 383.9270
84.6000 604.6198
84.6100 410.5636
84.6200 511.3064
84.6300 368.6222
84.6400 388.1652
84.6500 551.7654
84.6600 632.5462
84.6700 355.1196
84.6800 345.5952
84.6900 456.5648
84.7000 390.9616
84.7100 391.9444
84.7200 512.6790
84.7300 354.6390
84.7400 383.7052
84.7500 311.2436
84.7600 234.1198
84.7700 228.9824
84.7800 505.1630
84.7900 319.9082
84.8000 360.4822
84.8100 374.0652
84.8200 415.2208
84.8300 377.8614
84.8400 404.5158
84.8500 410.3550
84.8600 431.5104
84.8700 645.7422
84.8800 534.5520
84.8900 450.5792
84.9000 409.1750
84.9100 463.4886
84.9200 515.7254
84.9300 337.5820
84.9400 509.9684
84.9500 590.6112
84.9600 435.5536
84.9700 372.4074
84.9800 464.9544
84.9900 411.0528
85.0000 557.9448
85.0100 500.8474
85.0200 390.7986
85.0300 449.1890
85.0400 516.3096
85.0500 732.3848
85.0600 577.4456
85.0700 438.7834
85.0800 344.0730
85.0900 723.0634
85.1000 660.6980
85.1100 445.4746
85.1200 438.8518
85.1300 445.3332
85.1400 393.9616
85.1500 531.0080
85.1600 510.3926
85.1700 584.2356
85.1800 544.5400
85.1900 565.2414
85.2000 475.3138
85.2100 677.1964
85.2200 540.3976
85.2300 577.0812
85.2400 518.4452
85.2500 591.0206
85.2600 472.7654
85.2700 335.3790
85.2800 461.1950
85.2900 360.8350
85.3000 427.6052
85.3100 461.3604
85.3200 450.9106
85.3300 383.6786
85.3400 394.1464
85.3500 633.1734
85.3600 523.4278
85.3700 433.9608
85.3800 473.1902
85.3900 434.3238
85.4000 672.8388
85.4100 528.5118
85.4200 581.7204
85.4300 551.6434
85.4400 505.3856
85.4500 446.8716
85.4600 362.0258
85.4700 527.7724
85.4800 372.3938
85.4900 445.1434
85.5000 650.3990
85.5100 320.5562
85.5200 279.8564
85.5300 445.7556
85.5400 591.5966
85.5500 450.5936
85.5600 475.9264
85.5700 591.3328
85.5800 314.1476
85.5900 477.5504
85.6000 462.9102
85.6100 464.0396
85.6200 518.1852
85.6300 440.9174
85.6400 419.8782
85.6500 350.7138
85.6600 406.5952
85.6700 471.3352
85.6800 524.1664
85.6900 499.8368
85.7000 567.8836
85.7100 376.8732
85.7200 272.9832
85.7300 433.9406
85.7400 420.3254
85.7500 469.9188
85.7600 441.8944
85.7700 555.0984
85.7800 456.3744
85.7900 551.7380
85.8000 445.8476
85.8100 568.4436
85.8200 384.6466
85.8300 373.7142
85.8400 382.1936
85.8500 330.2216
85.8600 340.6492
85.8700 471.5896
85.8800 448.0746
85.8900 473.7588
85.9000 492.3914
85.9100 313.7916
85.9200 644.9814
85.9300 389.0596
85.9400 499.6908
85.9500 489.9382
85.9600 501.5596
85.9700 344.3018
85.9800 386.4264
85.9900 462.8924
86.0000 449.1592
86.0100 506.7486
86.0200 359.6550
86.0300 359.6402
86.0400 421.4454
86.0500 278.8122
86.0600 376.3298
86.0700 290.2932
86.0800 335.7828
86.0900 455.3092
86.1000 327.7600
86.1100 437.3948
86.1200 340.4004
86.1300 378.2334
86.1400 423.9750
86.1500 326.7322
86.1600 329.6290
86.1700 242.0894
86.1800 377.3718
86.1900 470.6632
86.2000 407.0432
86.2100 555.9200
86.2200 421.5418
86.2300 336.3182
86.2400 321.0814
86.2500 433.6790
86.2600 477.1962
86.2700 508.8932
86.2800 320.0890
86.2900 505.9656
86.3000 327.1216
86.3100 339.3698
86.3200 309.4610
86.3300 332.9240
86.3400 277.2816
86.3500 559.5506
86.3600 464.0274
86.3700 382.5866
86.3800 532.6214
86.3900 467.3386
86.4000 592.3896
86.4100 402.3152
86.4200 542.0328
86.4300 387.2530
86.4400 366.9752
86.4500 468.9170
86.4600 455.0134
86.4700 360.7658
86.4800 252.9814
86.4900 286.9394
86.5000 474.8804
86.5100 398.8772
86.5200 458.4974
86.5300 521.6886
86.5400 465.9948
86.5500 327.8632
86.5600 386.6412
86.5700 397.1254
86.5800 403.5984
86.5900 379.5240
86.6000 286.5300
86.6100 266.9320
86.6200 448.7312
86.6300 317.9726
86.6400 391.7304
86.6500 380.2184
86.6600 322.3492
86.6700 362.1918
86.6800 407.8520
86.6900 464.1370
86.7000 337.4734
86.7100 497.9820
86.7200 379.6612
86.7300 348.3742
86.7400 411.2278
86.7500 531.2336
86.7600 261.4478
86.7700 412.6912
86.7800 474.5788
86.7900 453.8634
86.8000 290.4618
86.8100 342.6356
86.8200 441.9714
86.8300 557.5402
86.8400 328.6020
86.8500 335.4990
86.8600 447.8636
86.8700 397.6588
86.8800 341.3828
86.8900 501.0574
86.9000 426.8142
86.9100 565.7408
86.9200 546.9528
86.9300 559.6066
86.9400 382.2360
86.9500 415.2860
86.9600 306.9456
86.9700 382.3698
86.9800 375.7636
86.9900 419.4088
87.0000 408.9066
87.0100 458.2294
87.0200 507.7722
87.0300 542.1108
87.0400 381.3112
87.0500 220.1440
87.0600 275.1384
87.0700 286.2388
87.0800 169.6238
87.0900 390.1276
87.1000 160.1428
87.1100 213.5118
87.1200 349.7666
87.1300 251.4410
87.1400 229.4316
87.1500 445.1954
87.1600 312.7770
87.1700 457.1592
87.1800 313.6096
87.1900 354.3316
87.2000 415.6542
87.2100 477.3630
87.2200 377.6364
87.2300 385.7120
87.2400 223.0374
87.2500 303.3978
87.2600 242.4756
87.2700 200.3666
87.2800 456.5276
87.2900 452.1818
87.3000 464.8150
87.3100 382.7388
87.3200 450.5972
87.3300 370.5394
87.3400 346.0658
87.3500 306.4804
87.3600 292.4124
87.3700 377.5640
87.3800 230.3036
87.3900 509.4184
87.4000 509.1808
87.4100 379.9036
87.4200 340.6412
87.4300 472.6220
87.4400 416.5306
87.4500 361.8492
87.4600 387.9118
87.4700 459.1320
87.4800 413.2382
87.4900 387.0736
87.5000 410.5442
87.5100 449.1790
87.5200 331.2646
87.5300 365.1628
87.5400 230.7968
87.5500 416.5814
87.5600 492.2264
87.5700 474.1764
87.5800 418.4016
87.5900 402.6792
87.6000 409.2182
87.6100 366.3406
87.6200 328.0014
87.6300 319.2114
87.6400 411.3490
87.6500 265.3012
87.6600 305.8378
87.6700 421.6752
87.6800 446.5100
87.6900 379.0934
87.7000 444.7600
87.7100 542.9760
87.7200 411.3564
87.7300 402.6032
87.7400 257.9528
87.7500 366.2500
87.7600 446.5324
87.7700 336.9902
87.7800 373.8640
87.7900 260.3168
87.8000 385.4464
87.8100 395.9082
87.8200 258.7156
87.8300 364.2792
87.8400 196.0666
87.8500 147.5780
87.8600 233.4626
87.8700 400.1882
87.8800 374.4094
87.8900 346.5222
87.9000 360.7706
87.9100 474.7164
87.9200 224.0270
87.9300 330.0924
87.9400 269.3392
87.9500 342.9950
87.9600 439.7600
87.9700 361.4706
87.9800 429.6372
87.9900 419.2374
88.0000 337.6488
88.0100 329.4864
88.0200 296.3228
88.0300 334.4090
88.0400 316.5996
88.0500 266.9682
88.0600 478.6662
88.0700 380.9434
88.0800 205.8934
88.0900 473.4270
88.1000 432.4266
88.1100 369.7314
88.1200 354.0326
88.1300 413.9126
88.1400 358.9646
88.1500 247.9900
88.1600 329.3086
88.1700 306.4892
88.1800 356.3060
88.1900 513.4144
88.2000 474.2742
88.2100 261.9524
88.2200 414.9136
88.2300 468.5220
88.2400 349.8390
88.2500 304.5346
88.2600 337.1682
88.2700 307.0512
88.2800 279.2304
88.2900 287.8406
88.3000 379.2418
88.3100 263.0054
88.3200 315.1712
88.3300 441.8738
88.3400 475.1786
88.3500 528.9092
88.3600 395.0960
88.3700 472.9948
88.3800 267.7958
88.3900 508.8398
88.4000 516.8864
88.4100 321.0228
88.4200 462.0670
88.4300 453.4590
88.4400 345.7200
88.4500 521.9862
88.4600 477.0716
88.4700 303.3230
88.4800 419.7634
88.4900 523.1860
88.5000 260.6058
88.5100 449.1614
88.5200 436.5602
88.5300 448.4194
88.5400 304.3802
88.5500 517.9326
88.5600 530.0284
88.5700 509.2584
88.5800 254.6134
88.5900 421.9148
88.6000 377.4310
88.6100 557.6108
88.6200 396.8010
88.6300 361.5004
88.6400 475.4712
88.6500 549.5954
88.6600 463.5132
88.6700 344.9270
88.6800 358.3936
88.6900 362.7566
88.7000 386.9856
88.7100 401.7514
88.7200 495.3454
88.7300 439.9196
88.7400 356.5720
88.7500 298.8270
88.7600 456.1348
88.7700 359.4972
88.7800 268.4784
88.7900 420.1258
88.8000 222.2906
88.8100 293.0560
88.8200 236.6984
88.8300 413.9326
88.8400 300.6568
88.8500 307.3238
88.8600 379.3366
88.8700 424.2478
88.8800 461.7350
88.8900 498.1534
88.9000 311.8188
88.9100 286.6806
88.9200 481.2966
88.9300 607.0554
88.9400 411.8654
88.9500 386.7426
88.9600 545.3206
88.9700 423.3084
88.9800 351.9450
88.9900 484.3262
89.0000 516.0694
89.0100 472.5534
89.0200 418.2004
89.0300 210.3940
89.0400 278.7524
89.0500 631.1538
89.0600 392.2106
89.0700 418.9156
89.0800 311.0646
89.0900 344.2888
89.1000 254.0178
89.1100 552.7232
89.1200 480.8702
89.1300 366.7562
89.1400 372.9560
89.1500 362.6718
89.1600 412.4806
89.1700 409.1972
89.1800 241.1352
89.1900 525.5002
89.2000 414.4598
89.2100 257.6368
89.2200 559.7974
89.2300 311.1644
89.2400 430.8860
89.2500 462.7678
89.2600 299.4314
89.2700 542.6908
89.2800 460.1802
89.2900 464.0114
89.3000 411.1492
89.3100 442.7762
89.3200 280.5354
89.3300 427.3766
89.3400 381.1064
89.3500 231.2362
89.3600 192.5890
89.3700 372.8564
89.3800 385.2152
89.3900 380.9798
89.4000 283.1724
89.4100 326.0254
89.4200 385.5140
89.4300 294.1478
89.4400 460.2944
89.4500 261.1268
89.4600 317.4122
89.4700 468.1738
89.4800 449.6464
89.4900 212.4722
89.5000 322.9196
89.5100 419.8944
89.5200 332.2880
89.5300 425.9356
89.5400 386.2250
89.5500 524.6420
89.5600 453.1386
89.5700 429.2994
89.5800 414.7494
89.5900 496.2970
89.6000 466.6554
89.6100 357.6676
89.6200 281.3868
89.6300 289.7572
89.6400 373.4056
89.6500 256.6786
89.6600 373.6046
89.6700 322.6778
89.6800 478.2402
89.6900 389.9874
89.7000 398.2640
89.7100 243.3526
89.7200 500.3992
89.7300 425.1244
89.7400 462.9762
89.7500 349.6094
89.7600 543.7992
89.7700 254.0060
89.7800 465.8996
89.7900 430.1946
89.8000 274.2664
89.8100 327.0804
89.8200 371.0624
89.8300 326.8328
89.8400 385.6280
89.8500 359.1448
89.8600 373.2698
89.8700 430.9898
89.8800 278.9692
89.8900 280.8506
89.9000 285.8796
89.9100 413.2632
89.9200 492.5236
89.9300 383.2300
89.9400 383.1332
89.9500 297.4928
89.9600 346.0684
89.9700 460.4094
89.9800 478.4558
89.9900 378.1348
90.0000 250.4974
