#Intensity_unit=cps
#Attenuator_coefficient=1.0000
4.0000 7668.9188
4.0100 7473.3048
4.0200 7473.2604
4.0300 7518.6772
4.0400 7118.6076
4.0500 7186.7426
4.0600 7306.4092
4.0700 6996.1008
4.0800 6811.0840
4.0900 6831.5008
4.1000 7051.0798
4.1100 7054.5954
4.1200 7008.8034
4.1300 6976.0294
4.1400 7022.7946
4.1500 6956.4148
4.1600 6862.0544
4.1700 6747.7254
4.1800 6792.0766
4.1900 6808.5312
4.2000 6721.8084
4.2100 6700.9852
4.2200 6687.9512
4.2300 6650.2518
4.2400 6531.7678
4.2500 6552.2568
4.2600 6624.0820
4.2700 6608.5362
4.2800 6710.9664
4.2900 6751.5294
4.3000 6594.5856
4.3100 6320.9838
4.3200 6229.1982
4.3300 6336.1390
4.3400 6142.2104
4.3500 6171.4020
4.3600 6368.8080
4.3700 6637.6684
4.3800 6789.6596
4.3900 6733.9218
4.4000 6431.1070
4.4100 6635.7014
4.4200 6725.9374
4.4300 6558.5988
4.4400 6527.3168
4.4500 6504.8624
4.4600 6476.3926
4.4700 6452.6190
4.4800 6384.0856
4.4900 6343.2684
4.5000 6396.7672
4.5100 6460.5082
4.5200 6257.3720
4.5300 5844.7550
4.5400 6198.7248
4.5500 6257.4428
4.5600 6123.4004
4.5700 6454.3010
4.5800 6466.6198
4.5900 6435.5804
4.6000 6647.1080
4.6100 6225.3698
4.6200 6014.5248
4.6300 6320.9986
4.6400 6245.2514
4.6500 6029.0680
4.6600 5851.3326
4.6700 6055.5730
4.6800 6103.4484
4.6900 6093.4708
4.7000 6177.5310
4.7100 6072.8750
4.7200 6047.3810
4.7300 6189.5090
4.7400 5916.2914
4.7500 5717.9804
4.7600 5728.8330
4.7700 5993.9652
4.7800 6206.9300
4.7900 6254.2440
4.8000 5990.2384
4.8100 5903.1458
4.8200 5875.1308
4.8300 5826.9602
4.8400 5776.0284
4.8500 5913.8250
4.8600 6180.4556
4.8700 6110.2814
4.8800 5728.9388
4.8900 5456.2012
4.9000 5977.7318
4.9100 5887.4262
4.9200 5622.7132
4.9300 5541.8300
4.9400 5600.3490
4.9500 5798.4920
4.9600 6028.6962
4.9700 5775.6068
4.9800 5701.5614
4.9900 5720.6334
5.0000 5491.1758
5.0100 5634.4066
5.0200 5778.6322
5.0300 5604.4658
5.0400 5764.2528
5.0500 5917.3498
5.0600 5908.0902
5.0700 5701.9038
5.0800 5575.1698
5.0900 5545.9590
5.1000 5558.0632
5.1100 5516.5196
5.1200 5424.9898
5.1300 5310.1028
5.1400 5539.6800
5.1500 5740.0634
5.1600 5730.5502
5.1700 5575.5570
5.1800 5679.4282
5.1900 5959.7672
5.2000 5489.5472
5.2100 5362.5138
5.2200 5436.1456
5.2300 5579.0440
5.2400 5491.2990
5.2500 5438.7232
5.2600 5567.2744
5.2700 5745.8842
5.2800 5704.4780
5.2900 5507.5500
5.3000 5568.5928
5.3100 5636.7112
5.3200 5565.1230
5.3300 5173.6034
5.3400 5156.6380
5.3500 5308.7300
5.3600 5489.4282
5.3700 5251.7680
5.3800 5148.7478
5.3900 5233.2128
5.4000 5262.4502
5.4100 5001.3876
5.4200 4797.7432
5.4300 5273.4334
5.4400 5401.5844
5.4500 5334.7000
5.4600 5206.2286
5.4700 5195.3160
5.4800 5099.4004
5.4900 4938.6128
5.5000 5134.0978
5.5100 5330.9576
5.5200 5445.0008
5.5300 5405.5002
5.5400 5406.0786
5.5500 5352.3788
5.5600 5158.7412
5.5700 5125.6252
5.5800 5177.9444
5.5900 5245.8024
5.6000 5101.1760
5.6100 5118.0318
5.6200 5252.9734
5.6300 5276.2930
5.6400 5293.7800
5.6500 5243.8706
5.6600 5070.8516
5.6700 5298.0412
5.6800 5343.2530
5.6900 4986.0032
5.7000 4782.2906
5.7100 4940.3798
5.7200 5256.6024
5.7300 5104.1224
5.7400 5098.9262
5.7500 5079.7632
5.7600 4801.3224
5.7700 4865.5324
5.7800 4950.6562
5.7900 4880.8120
5.8000 4756.2082
5.8100 4739.1114
5.8200 4791.2308
5.8300 4674.2472
5.8400 4927.3352
5.8500 5215.5594
5.8600 5006.8730
5.8700 4890.8738
5.8800 4799.1384
5.8900 4684.1050
5.9000 4642.9978
5.9100 4806.2260
5.9200 5044.3426
5.9300 4714.5534
5.9400 4435.4722
5.9500 4319.5266
5.9600 4452.9866
5.9700 4557.0526
5.9800 4838.9918
5.9900 5380.4922
6.0000 4940.2018
6.0100 4722.6538
6.0200 4966.2826
6.0300 4822.7814
6.0400 4727.5844
6.0500 4709.6384
6.0600 4395.3562
6.0700 4424.3780
6.0800 4626.8586
6.0900 4892.1738
6.1000 4818.7806
6.1100 4681.4178
6.1200 4605.1452
6.1300 4675.5610
6.1400 4584.5220
6.1500 4438.0676
6.1600 4588.2838
6.1700 4609.5358
6.1800 4549.3734
6.1900 4489.2462
6.2000 4651.5792
6.2100 4640.4892
6.2200 4334.0724
6.2300 4606.9352
6.2400 4719.2860
6.2500 4613.0762
6.2600 4358.8500
6.2700 4289.3468
6.2800 4329.1946
6.2900 4384.7366
6.3000 4454.5472
6.3100 4527.7736
6.3200 4598.4304
6.3300 4661.6994
6.3400 4802.6326
6.3500 4947.6938
6.3600 4793.5358
6.3700 4512.9694
6.3800 4278.0532
6.3900 4304.0472
6.4000 4504.0706
6.4100 4611.3180
6.4200 4497.4228
6.4300 4403.0976
6.4400 4460.1970
6.4500 4598.1384
6.4600 4408.0256
6.4700 4366.6718
6.4800 4377.4816
6.4900 4201.2064
6.5000 4200.8832
6.5100 4269.7098
6.5200 4323.7238
6.5300 4319.6534
6.5400 4447.3354
6.5500 4667.9174
6.5600 4502.8662
6.5700 4194.0522
6.5800 3975.9064
6.5900 4213.3506
6.6000 4113.4592
6.6100 3978.0930
6.6200 4091.9576
6.6300 4177.1870
6.6400 4318.2118
6.6500 4480.5634
6.6600 4285.8318
6.6700 4111.2944
6.6800 4037.5018
6.6900 4106.6786
6.7000 4024.3642
6.7100 3955.1936
6.7200 4069.9982
6.7300 3984.0770
6.7400 3813.7636
6.7500 3688.6948
6.7600 4064.3334
6.7700 4332.8024
6.7800 4317.2308
6.7900 3852.9904
6.8000 4034.9818
6.8100 4379.5944
6.8200 4278.1322
6.8300 4517.3600
6.8400 4607.8720
6.8500 4297.5596
6.8600 4031.6336
6.8700 4059.4248
6.8800 4259.7064
6.8900 4079.5392
6.9000 3857.7836
6.9100 3694.8728
6.9200 3843.6758
6.9300 3910.4282
6.9400 3999.8660
6.9500 4116.8198
6.9600 3849.5010
6.9700 3700.6440
6.9800 3723.4840
6.9900 3577.5264
7.0000 3663.3862
7.0100 3847.3276
7.0200 3854.8998
7.0300 3773.5168
7.0400 3712.6196
7.0500 3753.8762
7.0600 3875.1638
7.0700 4089.7600
7.0800 4345.9116
7.0900 4255.4276
7.1000 3983.2398
7.1100 3693.6450
7.1200 3678.6206
7.1300 3580.5320
7.1400 3481.5602
7.1500 3482.4506
7.1600 3611.5020
7.1700 3841.7082
7.1800 4076.5056
7.1900 3847.4736
7.2000 3783.5122
7.2100 3840.8126
7.2200 3699.1384
7.2300 3739.9958
7.2400 3740.6792
7.2500 3463.4146
7.2600 3494.8850
7.2700 3676.4804
7.2800 3894.7614
7.2900 3750.3128
7.3000 3616.9474
7.3100 3580.6872
7.3200 3674.6912
7.3300 3714.4996
7.3400 3760.3792
7.3500 3877.7456
7.3600 3622.8828
7.3700 3472.1102
7.3800 3634.8566
7.3900 3582.4132
7.4000 3561.4314
7.4100 3590.9576
7.4200 3544.1912
7.4300 3466.7250
7.4400 3427.9452
7.4500 3514.9274
7.4600 3548.0776
7.4700 3639.5708
7.4800 3825.2900
7.4900 3692.3582
7.5000 3634.7964
7.5100 3719.8570
7.5200 3775.0372
7.5300 3588.7658
7.5400 3348.2220
7.5500 3372.6978
7.5600 3347.1318
7.5700 3401.2362
7.5800 3599.5692
7.5900 3343.0878
7.6000 3266.0972
7.6100 3444.4796
7.6200 3246.7298
7.6300 3177.2174
7.6400 3278.9724
7.6500 3526.6668
7.6600 3620.6232
7.6700 3561.3522
7.6800 3361.3850
7.6900 3437.3058
7.7000 3531.2956
7.7100 3558.0206
7.7200 3604.6900
7.7300 3630.1260
7.7400 3585.5832
7.7500 3370.9426
7.7600 3471.5846
7.7700 3648.5014
7.7800 3398.2360
7.7900 3102.6054
7.8000 3107.7322
7.8100 3480.2502
7.8200 3311.2404
7.8300 3174.3464
7.8400 3183.2850
7.8500 3339.3030
7.8600 3301.1126
7.8700 3176.9696
7.8800 3117.2702
7.8900 3266.1412
7.9000 3285.4596
7.9100 3097.1766
7.9200 3547.4526
7.9300 3600.7680
7.9400 3251.4020
7.9500 3170.3314
7.9600 3196.6478
7.9700 3242.1466
7.9800 3227.7248
7.9900 3044.6436
8.0000 2954.5118
8.0100 3114.0862
8.0200 3257.4404
8.0300 3348.1692
8.0400 3412.0298
8.0500 3575.1096
8.0600 3521.1402
8.0700 3352.0250
8.0800 3264.0170
8.0900 3309.8368
8.1000 3379.6456
8.1100 3400.5850
8.1200 3365.4180
8.1300 3399.2948
8.1400 3478.6410
8.1500 3347.4216
8.1600 3408.7008
8.1700 3489.7154
8.1800 3174.7314
8.1900 3244.8238
8.2000 3402.8364
8.2100 3368.7678
8.2200 3156.8852
8.2300 3161.5364
8.2400 3435.3366
8.2500 3385.0986
8.2600 3478.8940
8.2700 3543.5056
8.2800 3013.7596
8.2900 3144.1914
8.3000 3404.8986
8.3100 3277.8490
8.3200 3213.2594
8.3300 3122.3936
8.3400 3017.9576
8.3500 3250.4344
8.3600 3106.0746
8.3700 2763.2256
8.3800 3024.1236
8.3900 3180.2086
8.4000 3183.3998
8.4100 3033.5494
8.4200 3072.0998
8.4300 3199.6954
8.4400 3325.6318
8.4500 3154.2878
8.4600 2932.2542
8.4700 2749.1536
8.4800 2702.6542
8.4900 2823.3996
8.5000 2933.8582
8.5100 2812.5514
8.5200 2968.4810
8.5300 3072.2578
8.5400 2947.1954
8.5500 3029.0832
8.5600 3031.7476
8.5700 2948.9496
8.5800 3053.6810
8.5900 3192.0272
8.6000 3308.3568
8.6100 3330.5494
8.6200 3094.9218
8.6300 2913.5310
8.6400 3013.8950
8.6500 3180.8382
8.6600 3070.7372
8.6700 2706.3446
8.6800 2709.2890
8.6900 2782.4844
8.7000 2865.4558
8.7100 2938.0862
8.7200 2945.6942
8.7300 2960.2184
8.7400 3033.1680
8.7500 3011.2836
8.7600 2895.5818
8.7700 2758.4810
8.7800 2980.4034
8.7900 3171.3768
8.8000 3271.0630
8.8100 2773.1458
8.8200 2833.3750
8.8300 3025.9766
8.8400 3002.1546
8.8500 2917.1112
8.8600 2857.5018
8.8700 2873.2244
8.8800 3011.9530
8.8900 2976.8390
8.9000 2801.6828
8.9100 2702.5794
8.9200 2737.1292
8.9300 2838.4896
8.9400 2934.0602
8.9500 2851.1378
8.9600 2811.0296
8.9700 2908.8540
8.9800 3076.1912
8.9900 3135.6628
9.0000 3058.9348
9.0100 2790.8096
9.0200 2964.4522
9.0300 3267.3132
9.0400 3227.6346
9.0500 3019.7614
9.0600 2810.5552
9.0700 2713.0594
9.0800 2834.1500
9.0900 2850.4184
9.1000 2755.5840
9.1100 2847.1912
9.1200 2829.3836
9.1300 2732.5454
9.1400 2643.7166
9.1500 2740.9584
9.1600 2877.7448
9.1700 2978.3448
9.1800 3097.7746
9.1900 3225.3846
9.2000 3285.1632
9.2100 2980.0924
9.2200 2843.6546
9.2300 2815.2482
9.2400 2672.6250
9.2500 2698.6868
9.2600 2785.6864
9.2700 2832.0030
9.2800 2731.1816
9.2900 2715.4518
9.3000 2837.1834
9.3100 2877.5294
9.3200 2902.8662
9.3300 2908.3628
9.3400 2854.5820
9.3500 2884.4334
9.3600 2916.5840
9.3700 2890.4394
9.3800 3157.5368
9.3900 3282.0066
9.4000 3090.9592
9.4100 2859.8292
9.4200 2769.4412
9.4300 2783.1770
9.4400 2739.8250
9.4500 2720.9572
9.4600 2665.3470
9.4700 2513.7388
9.4800 2729.9542
9.4900 2882.1998
9.5000 2778.8992
9.5100 2788.5584
9.5200 2828.6196
9.5300 2847.0738
9.5400 2746.5444
9.5500 2674.7238
9.5600 2655.5552
9.5700 2713.3098
9.5800 2770.7174
9.5900 2735.0622
9.6000 2572.6066
9.6100 2594.4002
9.6200 2650.1066
9.6300 2703.9248
9.6400 2777.7468
9.6500 2882.8732
9.6600 2975.0298
9.6700 2641.3130
9.6800 2531.4036
9.6900 2556.0062
9.7000 2695.0876
9.7100 2734.4576
9.7200 2657.7482
9.7300 2540.9006
9.7400 2736.4234
9.7500 3008.5244
9.7600 3167.6298
9.7700 2926.1110
9.7800 3143.2100
9.7900 3491.7864
9.8000 3690.1708
9.8100 3804.5540
9.8200 3778.6166
9.8300 3629.5438
9.8400 4111.2854
9.8500 4590.3462
9.8600 4973.4222
9.8700 5064.4064
9.8800 5114.5390
9.8900 5143.0548
9.9000 5131.0480
9.9100 5002.4694
9.9200 4771.0484
9.9300 4479.1076
9.9400 4397.4834
9.9500 4333.1130
9.9600 4328.4388
9.9700 4596.0744
9.9800 4452.0584
9.9900 4312.0052
10.0000 4678.7292
10.0100 4895.2280
10.0200 5044.5892
10.0300 5164.6052
10.0400 5076.5904
10.0500 4865.3356
10.0600 4568.4524
10.0700 4222.6698
10.0800 3853.0034
10.0900 3544.3560
10.1000 3426.8428
10.1100 3419.8334
10.1200 3304.0054
10.1300 2966.0830
10.1400 2724.4954
10.1500 2601.2706
10.1600 2589.7242
10.1700 2649.4584
10.1800 2403.0474
10.1900 2191.7806
10.2000 2571.5884
10.2100 2593.7788
10.2200 2495.6800
10.2300 2471.8646
10.2400 2645.6900
10.2500 2558.7950
10.2600 2194.0186
10.2700 2132.7290
10.2800 2300.0364
10.2900 2550.3116
10.3000 2666.3426
10.3100 2563.3712
10.3200 2407.8072
10.3300 2326.9646
10.3400 2320.1622
10.3500 2358.1602
10.3600 2441.1998
10.3700 2598.0496
10.3800 2558.6012
10.3900 2436.9174
10.4000 2545.8056
10.4100 2550.3068
10.4200 2430.4164
10.4300 2184.6448
10.4400 2176.6448
10.4500 2296.0206
10.4600 2451.9140
10.4700 2349.5514
10.4800 2338.2152
10.4900 2423.2790
10.5000 2459.3388
10.5100 2413.6220
10.5200 2353.8338
10.5300 2418.9336
10.5400 2566.4868
10.5500 2515.7888
10.5600 2218.1116
10.5700 2538.9082
10.5800 2626.6854
10.5900 2402.4430
10.6000 2184.2372
10.6100 2170.1330
10.6200 2234.1342
10.6300 2235.9536
10.6400 2590.9422
10.6500 2767.6582
10.6600 2473.2852
10.6700 2316.1042
10.6800 2262.4842
10.6900 2277.6158
10.7000 2236.4780
10.7100 2326.4392
10.7200 2406.6328
10.7300 2255.4946
10.7400 2378.7816
10.7500 2430.0594
10.7600 2208.7356
10.7700 2424.8858
10.7800 2445.7112
10.7900 2204.0444
10.8000 2287.6220
10.8100 2301.2298
10.8200 2256.2882
10.8300 2262.4684
10.8400 2234.7728
10.8500 2211.6696
10.8600 2226.6322
10.8700 2454.8002
10.8800 2529.2316
10.8900 2383.5042
10.9000 2227.0432
10.9100 2231.4830
10.9200 2302.9824
10.9300 2207.7996
10.9400 2231.3176
10.9500 2277.1098
10.9600 2248.4504
10.9700 2289.9264
10.9800 2312.3560
10.9900 2280.1588
11.0000 2238.4020
11.0100 2256.2988
11.0200 2295.8230
11.0300 2235.0532
11.0400 2145.6604
11.0500 2156.2474
11.0600 2384.0292
11.0700 2208.7362
11.0800 2100.0308
11.0900 2263.5076
11.1000 2322.1184
11.1100 2439.1666
11.1200 2530.5892
11.1300 2235.4728
11.1400 2129.7602
11.1500 2130.5502
11.1600 2088.2898
11.1700 2135.9304
11.1800 2209.2146
11.1900 2277.1976
11.2000 2378.4558
11.2100 2412.2520
11.2200 2378.8786
11.2300 2368.9220
11.2400 2204.4940
11.2500 1986.1166
11.2600 1888.8860
11.2700 1967.3732
11.2800 2061.5052
11.2900 2075.4732
11.3000 2126.7248
11.3100 2137.6614
11.3200 2138.4644
11.3300 2354.0546
11.3400 2281.7426
11.3500 2092.6578
11.3600 2181.1218
11.3700 2228.2372
11.3800 2232.7642
11.3900 2214.1068
11.4000 2303.2048
11.4100 2419.1112
11.4200 2500.8954
11.4300 2401.1154
11.4400 2321.5388
11.4500 2202.9348
11.4600 1854.7740
11.4700 2025.2870
11.4800 2295.0556
11.4900 2262.0460
11.5000 2242.2254
11.5100 2221.5624
11.5200 2190.2430
11.5300 2154.3608
11.5400 2230.1832
11.5500 2362.6450
11.5600 2430.8092
11.5700 2433.1510
11.5800 2411.9178
11.5900 2388.1464
11.6000 2332.6160
11.6100 2419.8326
11.6200 2692.5128
11.6300 2705.3212
11.6400 2777.3132
11.6500 2961.3340
11.6600 3211.5176
11.6700 3414.1772
11.6800 3490.9630
11.6900 3341.5138
11.7000 3491.4944
11.7100 3565.7320
11.7200 3368.7594
11.7300 3104.5624
11.7400 3007.0340
11.7500 2979.3128
11.7600 2627.9692
11.7700 2493.4146
11.7800 2485.2054
11.7900 2416.3014
11.8000 2536.8068
11.8100 2542.6002
11.8200 2271.3442
11.8300 2458.0274
11.8400 2511.4398
11.8500 2330.9598
11.8600 2284.7994
11.8700 2335.7480
11.8800 2397.2910
11.8900 2336.2772
11.9000 2314.5072
11.9100 2283.5742
11.9200 2205.8500
11.9300 2217.3296
11.9400 2276.2334
11.9500 2331.2716
11.9600 2205.6396
11.9700 2177.4074
11.9800 2192.2094
11.9900 2055.6188
12.0000 2044.7504
12.0100 2115.0334
12.0200 2219.0150
12.0300 2242.9608
12.0400 2238.6380
12.0500 2211.4278
12.0600 2087.6448
12.0700 2086.7546
12.0800 2176.0588
12.0900 2192.7200
12.1000 2145.0778
12.1100 2103.0910
12.1200 2135.7430
12.1300 2117.2352
12.1400 2167.4636
12.1500 2298.4680
12.1600 2130.3804
12.1700 2086.7500
12.1800 2181.1206
12.1900 2195.1360
12.2000 2256.9842
12.2100 2330.0676
12.2200 2360.3502
12.2300 2477.4284
12.2400 2481.9124
12.2500 2265.7306
12.2600 2108.7086
12.2700 2045.0288
12.2800 2048.0962
12.2900 2005.1358
12.3000 2139.6472
12.3100 2293.5280
12.3200 2211.2442
12.3300 2310.8936
12.3400 2339.0268
12.3500 2118.3500
12.3600 1937.7404
12.3700 1941.7798
12.3800 2143.8514
12.3900 2396.5116
12.4000 2460.2364
12.4100 2411.9468
12.4200 2199.5602
12.4300 2291.4794
12.4400 2393.9712
12.4500 2323.8208
12.4600 2405.0626
12.4700 2506.9596
12.4800 2579.5182
12.4900 2616.2986
12.5000 2712.8260
12.5100 2816.7990
12.5200 2798.0728
12.5300 2980.3114
12.5400 3166.0624
12.5500 3153.8084
12.5600 3061.2092
12.5700 3092.1254
12.5800 3285.6494
12.5900 3427.3048
12.6000 3576.3362
12.6100 3789.2580
12.6200 4133.9544
12.6300 4417.5060
12.6400 4630.4494
12.6500 4773.9370
12.6600 5056.2882
12.6700 5369.8990
12.6800 5702.6402
12.6900 6287.1434
12.7000 6226.4124
12.7100 5698.1888
12.7200 5703.8788
12.7300 5514.9266
12.7400 5233.3480
12.7500 5065.8752
12.7600 4940.9358
12.7700 4855.1316
12.7800 4783.5194
12.7900 4597.3420
12.8000 4418.9896
12.8100 4226.7252
12.8200 3838.6872
12.8300 3588.2696
12.8400 3447.9204
12.8500 3353.0750
12.8600 3304.9212
12.8700 3291.4358
12.8800 3291.1094
12.8900 3128.0110
12.9000 3007.0008
12.9100 2963.9750
12.9200 2886.0624
12.9300 2998.6924
12.9400 3063.8150
12.9500 2635.3884
12.9600 2639.4742
12.9700 2771.6190
12.9800 2804.3704
12.9900 3010.2178
13.0000 3099.3448
13.0100 3084.0778
13.0200 3540.9930
13.0300 3897.6240
13.0400 4142.6130
13.0500 4422.4798
13.0600 4741.1820
13.0700 5076.4344
13.0800 5415.1682
13.0900 5779.9800
13.1000 5929.8422
13.1100 5797.3648
13.1200 5714.5950
13.1300 5420.8546
13.1400 5006.8466
13.1500 4770.9046
13.1600 4242.9108
13.1700 3839.2296
13.1800 4028.5962
13.1900 3744.2064
13.2000 3383.9876
13.2100 3118.8548
13.2200 2749.6078
13.2300 2738.0770
13.2400 2894.2942
13.2500 2425.9676
13.2600 2379.2844
13.2700 2533.8228
13.2800 2508.9554
13.2900 2288.7866
13.3000 2066.4492
13.3100 1970.6396
13.3200 2087.9478
13.3300 2206.5864
13.3400 2275.2092
13.3500 2300.1910
13.3600 2179.1526
13.3700 2097.3382
13.3800 2327.8028
13.3900 2165.3424
13.4000 1996.9908
13.4100 2060.2774
13.4200 1940.0658
13.4300 1937.4504
13.4400 2080.0240
13.4500 1994.9890
13.4600 2092.5046
13.4700 2254.7314
13.4800 2243.2188
13.4900 2364.6602
13.5000 2458.3494
13.5100 2388.4036
13.5200 2324.5730
13.5300 2385.7968
13.5400 2570.8008
13.5500 2642.4106
13.5600 2468.7348
13.5700 2277.0706
13.5800 2548.4754
13.5900 2563.4946
13.6000 2538.1386
13.6100 2688.4944
13.6200 2724.9932
13.6300 2675.0870
13.6400 2578.8546
13.6500 2618.5640
13.6600 2668.7268
13.6700 2666.8524
13.6800 2515.8974
13.6900 2532.0290
13.7000 2592.7688
13.7100 2544.8254
13.7200 2359.9660
13.7300 2252.1060
13.7400 2328.7990
13.7500 2513.8192
13.7600 2502.0782
13.7700 2409.5022
13.7800 2732.6658
13.7900 2722.1862
13.8000 2568.9352
13.8100 2537.9338
13.8200 2442.1832
13.8300 2472.6468
13.8400 2709.4292
13.8500 2721.1640
13.8600 2811.7708
13.8700 2967.2028
13.8800 2886.4214
13.8900 3142.0562
13.9000 3485.4086
13.9100 3488.9294
13.9200 3496.4574
13.9300 3547.0172
13.9400 3633.3976
13.9500 3518.7610
13.9600 3703.6674
13.9700 4227.6866
13.9800 4619.0964
13.9900 4647.6786
14.0000 4553.1534
14.0100 4765.0502
14.0200 5290.0696
14.0300 5812.4598
14.0400 6133.9716
14.0500 6713.6474
14.0600 7248.8382
14.0700 7728.4628
14.0800 8609.4624
14.0900 9708.4768
14.1000 11060.7494
14.1100 12888.2844
14.1200 14871.3196
14.1300 16940.6790
14.1400 19067.2872
14.1500 21037.0646
14.1600 23031.4880
14.1700 25014.1072
14.1800 26392.2200
14.1900 27346.9768
14.2000 27936.4116
14.2100 28096.1894
14.2200 27944.5068
14.2300 27125.4536
14.2400 25092.6718
14.2500 23131.6142
14.2600 21083.3170
14.2700 18731.1136
14.2800 15523.9186
14.2900 12905.9936
14.3000 11292.4448
14.3100 9432.2692
14.3200 8266.4612
14.3300 7260.0860
14.3400 6186.4136
14.3500 5506.2632
14.3600 5200.5126
14.3700 5219.6208
14.3800 4826.4846
14.3900 4484.8028
14.4000 4335.1324
14.4100 4453.4740
14.4200 4241.0324
14.4300 3804.9016
14.4400 3342.4236
14.4500 3090.2390
14.4600 3049.9472
14.4700 3224.5034
14.4800 2998.1726
14.4900 2835.2906
14.5000 2782.7260
14.5100 2658.1104
14.5200 2558.2586
14.5300 2490.8778
14.5400 2447.2858
14.5500 2234.4100
14.5600 2160.2022
14.5700 2436.5708
14.5800 2330.0286
14.5900 2318.4176
14.6000 2446.8778
14.6100 2122.3468
14.6200 2003.9542
14.6300 2095.9472
14.6400 2247.7748
14.6500 2384.4070
14.6600 2437.6032
14.6700 2348.0342
14.6800 2246.4046
14.6900 2130.2594
14.7000 2020.1006
14.7100 2041.2330
14.7200 2137.3866
14.7300 2220.9992
14.7400 2117.7164
14.7500 2192.2420
14.7600 2247.7144
14.7700 2048.6330
14.7800 1847.3258
14.7900 1768.6852
14.8000 1860.0338
14.8100 1945.6540
14.8200 1995.9870
14.8300 2020.1330
14.8400 2051.3864
14.8500 1929.8072
14.8600 1780.3480
14.8700 1766.9840
14.8800 1831.7324
14.8900 1885.7168
14.9000 1886.2824
14.9100 1890.3210
14.9200 1745.5350
14.9300 1543.7462
14.9400 1705.7502
14.9500 1764.2374
14.9600 1794.6556
14.9700 1965.4004
14.9800 1934.1634
14.9900 1880.6408
15.0000 1903.8188
15.0100 1794.6998
15.0200 1743.6446
15.0300 1784.6778
15.0400 1824.5516
15.0500 1848.9922
15.0600 1847.4114
15.0700 1802.4632
15.0800 1867.1208
15.0900 1858.1944
15.1000 1665.2264
15.1100 1835.4760
15.1200 1951.5886
15.1300 1888.4994
15.1400 1770.9380
15.1500 1740.6244
15.1600 1768.5442
15.1700 1994.6900
15.1800 1788.1820
15.1900 1543.3064
15.2000 1582.2042
15.2100 1709.9466
15.2200 1784.3062
15.2300 1769.9582
15.2400 1802.1800
15.2500 1831.6346
15.2600 1821.4362
15.2700 1703.1476
15.2800 1746.9750
15.2900 1798.1768
15.3000 1693.2672
15.3100 1737.2806
15.3200 1746.1780
15.3300 1651.7546
15.3400 1606.5714
15.3500 1683.9718
15.3600 1813.1608
15.3700 1785.8554
15.3800 1785.4280
15.3900 1871.0096
15.4000 2077.1088
15.4100 1756.3528
15.4200 1478.3882
15.4300 1545.5852
15.4400 1656.6092
15.4500 1655.1994
15.4600 1557.7894
15.4700 1533.2768
15.4800 1512.1404
15.4900 1551.8958
15.5000 1755.4112
15.5100 1660.2776
15.5200 1567.1016
15.5300 1636.0304
15.5400 1643.6606
15.5500 1612.0666
15.5600 1585.2316
15.5700 1706.1446
15.5800 1909.8730
15.5900 2039.7942
15.6000 1835.8082
15.6100 1685.4096
15.6200 1637.2536
15.6300 1711.9922
15.6400 1671.8492
15.6500 1675.2802
15.6600 1725.9922
15.6700 1582.9676
15.6800 1638.3168
15.6900 1787.2198
15.7000 1734.7668
15.7100 1571.2794
15.7200 1511.2706
15.7300 1725.7728
15.7400 1701.7866
15.7500 1634.0736
15.7600 1581.8848
15.7700 1445.3512
15.7800 1469.8146
15.7900 1640.1564
15.8000 1848.3724
15.8100 1811.9356
15.8200 1677.3624
15.8300 1594.7024
15.8400 1609.7822
15.8500 1641.8298
15.8600 1668.2196
15.8700 1765.2426
15.8800 1722.6724
15.8900 1593.7806
15.9000 1626.9550
15.9100 1591.7156
15.9200 1487.2066
15.9300 1328.5946
15.9400 1278.3918
15.9500 1376.1676
15.9600 1617.2084
15.9700 1643.9508
15.9800 1592.3358
15.9900 1562.9406
16.0000 1764.2388
16.0100 1713.1844
16.0200 1557.6950
16.0300 1674.2146
16.0400 1618.1114
16.0500 1625.5754
16.0600 1796.7254
16.0700 1641.5288
16.0800 1602.1596
16.0900 1724.7760
16.1000 1684.1320
16.1100 1520.4854
16.1200 1361.1878
16.1300 1400.7574
16.1400 1411.5806
16.1500 1433.8718
16.1600 1508.1410
16.1700 1582.4742
16.1800 1587.2904
16.1900 1523.2292
16.2000 1517.7646
16.2100 1508.0032
16.2200 1505.7508
16.2300 1554.7732
16.2400 1592.8002
16.2500 1637.9932
16.2600 1702.9032
16.2700 1682.1946
16.2800 1610.9094
16.2900 1516.0806
16.3000 1485.9976
16.3100 1556.0866
16.3200 1652.0876
16.3300 1600.2354
16.3400 1573.2344
16.3500 1593.2384
16.3600 1673.1768
16.3700 1450.9358
16.3800 1311.0486
16.3900 1380.8256
16.4000 1487.5376
16.4100 1476.2270
16.4200 1410.6884
16.4300 1538.2682
16.4400 1624.5984
16.4500 1641.0226
16.4600 1570.6758
16.4700 1602.6406
16.4800 1633.6406
16.4900 1599.5844
16.5000 1491.1194
16.5100 1578.2836
16.5200 1791.1156
16.5300 1707.8144
16.5400 1670.6334
16.5500 1683.3294
16.5600 1712.4944
16.5700 1809.4748
16.5800 1794.5582
16.5900 1604.4246
16.6000 1859.8144
16.6100 1993.7404
16.6200 1929.8180
16.6300 2003.5260
16.6400 1854.5230
16.6500 1634.9260
16.6600 1647.0290
16.6700 1653.6132
16.6800 1648.5020
16.6900 1627.6718
16.7000 1522.7788
16.7100 1581.4436
16.7200 1770.4624
16.7300 1542.2888
16.7400 1486.9862
16.7500 1541.3820
16.7600 1436.6118
16.7700 1370.1906
16.7800 1379.6824
16.7900 1493.2002
16.8000 1543.1992
16.8100 1537.5370
16.8200 1496.5736
16.8300 1527.3518
16.8400 1592.5230
16.8500 1647.6714
16.8600 1608.8476
16.8700 1625.7560
16.8800 1658.5530
16.8900 1700.4342
16.9000 1570.2298
16.9100 1571.0952
16.9200 1772.1596
16.9300 1664.5150
16.9400 1719.4684
16.9500 1847.5680
16.9600 1563.1166
16.9700 1610.1128
16.9800 1738.7138
16.9900 1607.8498
17.0000 1606.6028
17.0100 1684.6146
17.0200 1780.1884
17.0300 1633.1522
17.0400 1696.2296
17.0500 1945.2424
17.0600 1701.8358
17.0700 1569.0886
17.0800 1548.4270
17.0900 1656.5012
17.1000 1787.7382
17.1100 1822.0570
17.1200 1706.7446
17.1300 1778.2990
17.1400 1629.7910
17.1500 1311.8062
17.1600 1458.0116
17.1700 1571.3076
17.1800 1587.8714
17.1900 1505.2666
17.2000 1733.1680
17.2100 1800.9418
17.2200 1381.9860
17.2300 1413.4412
17.2400 1500.7440
17.2500 1536.4782
17.2600 1547.6052
17.2700 1566.7032
17.2800 1634.4110
17.2900 1814.8628
17.3000 1569.7090
17.3100 1300.4780
17.3200 1365.1800
17.3300 1513.7874
17.3400 1617.4070
17.3500 1624.8940
17.3600 1547.8052
17.3700 1528.2686
17.3800 1541.7138
17.3900 1485.0098
17.4000 1552.1466
17.4100 1619.4722
17.4200 1556.2060
17.4300 1389.9600
17.4400 1325.1706
17.4500 1426.0136
17.4600 1430.9434
17.4700 1485.2464
17.4800 1582.7444
17.4900 1633.9454
17.5000 1689.8474
17.5100 1773.2772
17.5200 1891.3810
17.5300 1723.2060
17.5400 1582.2014
17.5500 1619.0718
17.5600 1617.7038
17.5700 1576.4744
17.5800 1535.3806
17.5900 1617.7592
17.6000 1650.2766
17.6100 1619.7232
17.6200 1537.5876
17.6300 1793.3074
17.6400 1979.7728
17.6500 1862.7982
17.6600 1862.3162
17.6700 1723.5592
17.6800 1535.5304
17.6900 1900.5964
17.7000 2028.8336
17.7100 1939.3858
17.7200 1777.5824
17.7300 1797.7980
17.7400 1936.1156
17.7500 2127.1748
17.7600 2035.0214
17.7700 1949.0276
17.7800 1948.4156
17.7900 1949.3948
17.8000 1830.8274
17.8100 1670.3476
17.8200 1635.7480
17.8300 1627.2110
17.8400 1647.7020
17.8500 1712.2294
17.8600 1776.3226
17.8700 1670.0294
17.8800 1395.5678
17.8900 1375.4670
17.9000 1448.8744
17.9100 1538.0986
17.9200 1574.5096
17.9300 1517.0462
17.9400 1451.7880
17.9500 1461.0300
17.9600 1556.0114
17.9700 1608.3818
17.9800 1581.8200
17.9900 1640.6012
18.0000 1649.1792
18.0100 1596.8954
18.0200 1522.8522
18.0300 1637.0866
18.0400 1789.3164
18.0500 1788.0688
18.0600 1633.9884
18.0700 1514.5266
18.0800 1518.3320
18.0900 1580.1250
18.1000 1690.7108
18.1100 1783.5684
18.1200 1624.2702
18.1300 1629.1792
18.1400 1725.5234
18.1500 1776.5022
18.1600 1786.5212
18.1700 1743.0728
18.1800 1642.1030
18.1900 1612.1570
18.2000 1591.8634
18.2100 1573.7442
18.2200 1593.9108
18.2300 1570.9418
18.2400 1529.7568
18.2500 1521.3556
18.2600 1657.3500
18.2700 1691.2672
18.2800 1483.0934
18.2900 1489.4298
18.3000 1478.5886
18.3100 1403.3794
18.3200 1403.6504
18.3300 1472.5022
18.3400 1589.2408
18.3500 1725.5456
18.3600 1656.2408
18.3700 1523.5054
18.3800 1448.0008
18.3900 1463.4166
18.4000 1480.0734
18.4100 1490.6150
18.4200 1625.9630
18.4300 1722.4452
18.4400 1799.5210
18.4500 1947.8790
18.4600 1679.7794
18.4700 1403.8992
18.4800 1529.7562
18.4900 1534.2802
18.5000 1534.6106
18.5100 1572.6854
18.5200 1542.1310
18.5300 1580.5784
18.5400 1663.2964
18.5500 1661.0734
18.5600 1655.0352
18.5700 1679.8034
18.5800 1759.7840
18.5900 1658.5982
18.6000 1588.8024
18.6100 1658.1178
18.6200 1749.6116
18.6300 1790.2304
18.6400 1744.7814
18.6500 1551.4460
18.6600 1597.5218
18.6700 1680.3274
18.6800 1500.5498
18.6900 1561.4154
18.7000 1612.5938
18.7100 1520.1290
18.7200 1591.8196
18.7300 1641.7078
18.7400 1625.0128
18.7500 1570.6264
18.7600 1549.4696
18.7700 1551.0016
18.7800 1426.5342
18.7900 1557.6302
18.8000 1634.3490
18.8100 1466.4892
18.8200 1446.3088
18.8300 1644.7406
18.8400 1915.4158
18.8500 1517.0032
18.8600 1521.6134
18.8700 1749.3414
18.8800 1632.9622
18.8900 1633.8070
18.9000 1629.6134
18.9100 1514.7742
18.9200 1595.1086
18.9300 1611.3666
18.9400 1500.4336
18.9500 1587.1302
18.9600 1716.7394
18.9700 1826.6672
18.9800 1791.4294
18.9900 1663.8948
19.0000 1617.4770
19.0100 1813.0500
19.0200 1829.6414
19.0300 1722.7176
19.0400 1525.7956
19.0500 1355.7146
19.0600 1535.7510
19.0700 1863.2232
19.0800 1682.3880
19.0900 1501.8816
19.1000 1466.6104
19.1100 1704.6236
19.1200 1765.3684
19.1300 1672.6234
19.1400 1489.9858
19.1500 1660.8928
19.1600 1835.8024
19.1700 1895.3728
19.1800 1722.5610
19.1900 1741.4270
19.2000 1784.7562
19.2100 1589.6866
19.2200 1592.7072
19.2300 1686.8794
19.2400 1792.4748
19.2500 1759.0678
19.2600 1649.6646
19.2700 1567.6664
19.2800 1822.1430
19.2900 1888.6156
19.3000 1808.2468
19.3100 1710.9330
19.3200 1754.3576
19.3300 1816.2340
19.3400 1803.1406
19.3500 1698.4224
19.3600 1688.4602
19.3700 1779.9052
19.3800 1729.4648
19.3900 1692.2110
19.4000 1701.8424
19.4100 1787.1054
19.4200 1826.6856
19.4300 1841.4606
19.4400 1841.5604
19.4500 1758.7556
19.4600 1665.1246
19.4700 1634.8280
19.4800 1886.5340
19.4900 1911.0514
19.5000 1758.7342
19.5100 1689.4588
19.5200 1771.1058
19.5300 1869.0724
19.5400 1849.6266
19.5500 1718.6528
19.5600 1718.8838
19.5700 1870.4148
19.5800 1588.4864
19.5900 1571.9898
19.6000 1771.9666
19.6100 1745.8938
19.6200 1784.3398
19.6300 1842.7488
19.6400 1862.8574
19.6500 1896.5570
19.6600 1778.4690
19.6700 1495.2260
19.6800 1709.6914
19.6900 2048.4772
19.7000 2321.8798
19.7100 2221.0596
19.7200 2085.8008
19.7300 1973.6290
19.7400 1927.3246
19.7500 2130.3672
19.7600 2296.3678
19.7700 2261.5632
19.7800 2228.4144
19.7900 2392.1554
19.8000 2692.7426
19.8100 2480.7208
19.8200 2144.7846
19.8300 1877.0132
19.8400 1982.2800
19.8500 2016.2414
19.8600 2157.1986
19.8700 2491.9912
19.8800 2260.4460
19.8900 2060.2272
19.9000 2067.0764
19.9100 2188.1300
19.9200 2229.0512
19.9300 2257.1896
19.9400 2437.5512
19.9500 2455.8514
19.9600 2492.7150
19.9700 2693.0428
19.9800 2827.8822
19.9900 3026.6576
20.0000 3278.5438
20.0100 3184.6782
20.0200 3412.0994
20.0300 3945.6548
20.0400 4581.5012
20.0500 5024.9404
20.0600 5540.5610
20.0700 6390.0076
20.0800 7003.4962
20.0900 7654.1946
20.1000 8415.1458
20.1100 8949.5066
20.1200 9311.7614
20.1300 9545.8232
20.1400 9696.1304
20.1500 9328.4760
20.1600 8751.0660
20.1700 8197.9934
20.1800 7242.1448
20.1900 6388.7030
20.2000 5874.3688
20.2100 5343.3650
20.2200 4766.8802
20.2300 4178.5130
20.2400 3700.9814
20.2500 3519.7518
20.2600 3487.1196
20.2700 3427.0402
20.2800 3230.0250
20.2900 3052.8060
20.3000 2991.9156
20.3100 2989.8730
20.3200 2923.9022
20.3300 2781.3486
20.3400 2634.4462
20.3500 2567.2292
20.3600 2511.4270
20.3700 2356.8326
20.3800 2307.8532
20.3900 2208.0800
20.4000 2001.2950
20.4100 2325.6018
20.4200 2431.0550
20.4300 2223.0868
20.4400 2343.5656
20.4500 2078.6112
20.4600 1713.5294
20.4700 1917.7242
20.4800 2015.6972
20.4900 1973.2838
20.5000 1797.0392
20.5100 1839.2564
20.5200 1873.0388
20.5300 1847.6380
20.5400 1942.3766
20.5500 2024.6342
20.5600 2020.5866
20.5700 1814.7740
20.5800 2030.3916
20.5900 2188.8610
20.6000 1818.9822
20.6100 1710.9060
20.6200 1730.8504
20.6300 1805.9248
20.6400 1823.6312
20.6500 1844.5444
20.6600 1869.8898
20.6700 1829.6960
20.6800 1775.1902
20.6900 1762.1600
20.7000 1863.0780
20.7100 1921.3434
20.7200 1905.4974
20.7300 1818.8736
20.7400 1848.6194
20.7500 1823.7082
20.7600 1762.1950
20.7700 1831.9464
20.7800 1903.2904
20.7900 1845.0408
20.8000 1502.1228
20.8100 1647.6902
20.8200 1859.8650
20.8300 1894.9836
20.8400 1880.8216
20.8500 1850.2146
20.8600 1806.1040
20.8700 1743.7212
20.8800 1762.2694
20.8900 1822.8714
20.9000 1857.9200
20.9100 1823.9286
20.9200 1848.1360
20.9300 2004.3464
20.9400 2010.0550
20.9500 2024.9446
20.9600 2053.7754
20.9700 1904.9978
20.9800 1836.3842
20.9900 1826.1172
21.0000 1784.6300
21.0100 1931.6928
21.0200 2070.6690
21.0300 2061.3124
21.0400 2028.3234
21.0500 1890.5510
21.0600 1679.2818
21.0700 1731.0930
21.0800 1831.4278
21.0900 1945.6350
21.1000 2086.2336
21.1100 2181.1336
21.1200 2155.3370
21.1300 1945.9144
21.1400 2058.9004
21.1500 2169.7260
21.1600 2145.7266
21.1700 2078.9768
21.1800 2175.9478
21.1900 2272.8404
21.2000 1877.6792
21.2100 1910.7406
21.2200 2098.5600
21.2300 2096.2514
21.2400 2078.0770
21.2500 2082.4680
21.2600 2110.1618
21.2700 2044.1194
21.2800 2075.9524
21.2900 2219.5010
21.3000 2402.4998
21.3100 2595.2614
21.3200 2712.6748
21.3300 2628.4536
21.3400 2530.7140
21.3500 2514.5620
21.3600 2638.0150
21.3700 2807.8426
21.3800 2955.2852
21.3900 3000.3894
21.4000 2727.6018
21.4100 2729.0356
21.4200 2836.6424
21.4300 2731.6142
21.4400 2864.4852
21.4500 2898.4910
21.4600 2618.1532
21.4700 2582.4328
21.4800 2393.8958
21.4900 2089.3006
21.5000 2352.0868
21.5100 2388.8926
21.5200 2264.4592
21.5300 1987.7112
21.5400 1898.2276
21.5500 1953.7970
21.5600 2156.5934
21.5700 2105.1168
21.5800 2045.4074
21.5900 2033.8814
21.6000 1901.7648
21.6100 2012.9726
21.6200 2198.9536
21.6300 2003.8914
21.6400 1882.7970
21.6500 1892.0190
21.6600 2059.9718
21.6700 2026.6246
21.6800 2064.3344
21.6900 2248.7970
21.7000 1920.3632
21.7100 1963.4388
21.7200 2234.5988
21.7300 2175.0476
21.7400 2217.6068
21.7500 2323.1916
21.7600 2408.9752
21.7700 2318.1002
21.7800 2277.1620
21.7900 2360.3296
21.8000 2243.6112
21.8100 2292.0082
21.8200 2485.8816
21.8300 2541.1698
21.8400 2402.6368
21.8500 2256.2216
21.8600 2332.9076
21.8700 2327.0652
21.8800 2187.7174
21.8900 1912.7616
21.9000 1885.4688
21.9100 1947.4980
21.9200 2025.0212
21.9300 2010.6384
21.9400 1935.0938
21.9500 1850.4302
21.9600 1826.6526
21.9700 1867.9254
21.9800 1935.7258
21.9900 2006.4134
22.0000 2047.5646
22.0100 2005.7844
22.0200 1896.3770
22.0300 1859.8654
22.0400 1834.7408
22.0500 1870.6762
22.0600 2073.9380
22.0700 1933.7660
22.0800 1852.0586
22.0900 2121.8390
22.1000 1968.1420
22.1100 1945.9320
22.1200 2156.2616
22.1300 2047.8004
22.1400 1938.0144
22.1500 1902.9098
22.1600 2004.6722
22.1700 2115.2360
22.1800 2122.1900
22.1900 1929.3666
22.2000 1933.4668
22.2100 2015.3318
22.2200 2117.4274
22.2300 2177.6510
22.2400 1983.6222
22.2500 1752.1428
22.2600 2090.5470
22.2700 2038.9552
22.2800 1843.8556
22.2900 1823.6900
22.3000 1841.0678
22.3100 1874.8536
22.3200 1935.0694
22.3300 2106.5096
22.3400 2086.7156
22.3500 1899.8374
22.3600 1791.5646
22.3700 1916.1994
22.3800 2094.8090
22.3900 2062.3766
22.4000 1932.5560
22.4100 1925.4356
22.4200 2127.0758
22.4300 2026.6400
22.4400 2008.1236
22.4500 2109.5648
22.4600 2115.6862
22.4700 2094.5312
22.4800 2117.8710
22.4900 2287.5672
22.5000 2399.2210
22.5100 2416.0008
22.5200 2313.0528
22.5300 2238.0510
22.5400 2309.7644
22.5500 2498.2580
22.5600 2447.9980
22.5700 2419.6004
22.5800 2414.6754
22.5900 2400.6134
22.6000 2388.9078
22.6100 2367.8238
22.6200 2314.1200
22.6300 2140.1474
22.6400 2191.9912
22.6500 2458.4536
22.6600 2229.8658
22.6700 2364.4760
22.6800 2661.9454
22.6900 2466.1418
22.7000 2448.3688
22.7100 2508.5378
22.7200 2526.7194
22.7300 2579.8108
22.7400 2640.3148
22.7500 2696.7844
22.7600 2703.9338
22.7700 2731.4016
22.7800 2754.6166
22.7900 2675.3230
22.8000 2455.7818
22.8100 2293.1806
22.8200 2393.3670
22.8300 2285.7340
22.8400 2254.3638
22.8500 2423.2818
22.8600 2539.6306
22.8700 2456.7676
22.8800 2232.7200
22.8900 2102.7098
22.9000 2155.3342
22.9100 2233.7778
22.9200 2166.0640
22.9300 2265.4324
22.9400 2287.0168
22.9500 2098.3642
22.9600 1965.9046
22.9700 1941.1216
22.9800 1995.7836
22.9900 1994.1936
23.0000 1911.0140
23.0100 1851.8146
23.0200 1972.6980
23.0300 1953.1618
23.0400 1981.9952
23.0500 2153.4396
23.0600 1984.0908
23.0700 1945.2724
23.0800 2057.7074
23.0900 1812.2478
23.1000 1712.1366
23.1100 1751.9728
23.1200 1832.0522
23.1300 1792.6620
23.1400 1758.0052
23.1500 1835.3574
23.1600 1990.6848
23.1700 2094.5306
23.1800 2109.4164
23.1900 2094.5610
23.2000 1983.9820
23.2100 1848.9734
23.2200 1849.9800
23.2300 1907.6606
23.2400 1948.0752
23.2500 1920.1666
23.2600 2009.7690
23.2700 2059.7838
23.2800 1989.1606
23.2900 1766.9768
23.3000 1722.0312
23.3100 1838.6620
23.3200 1962.3312
23.3300 1924.8650
23.3400 1875.8040
23.3500 1978.7534
23.3600 2054.8844
23.3700 2081.4812
23.3800 2043.9390
23.3900 1957.2322
23.4000 2018.6544
23.4100 2179.6364
23.4200 2098.6302
23.4300 2013.8932
23.4400 2004.7018
23.4500 2170.5652
23.4600 2161.0206
23.4700 1992.0780
23.4800 1752.6576
23.4900 2150.8806
23.5000 2163.4178
23.5100 1810.3278
23.5200 2035.1332
23.5300 2293.1972
23.5400 2456.1126
23.5500 2411.1468
23.5600 2308.6894
23.5700 2220.6034
23.5800 2189.5782
23.5900 2107.8216
23.6000 2111.4850
23.6100 2173.4954
23.6200 2070.7618
23.6300 2081.9780
23.6400 2168.8482
23.6500 2209.4508
23.6600 2011.6706
23.6700 1948.3114
23.6800 2286.1872
23.6900 2275.7774
23.7000 2137.3568
23.7100 1982.2950
23.7200 1977.0942
23.7300 2011.1256
23.7400 2107.7232
23.7500 2365.7890
23.7600 2255.7184
23.7700 2094.3106
23.7800 2153.3592
23.7900 2253.0500
23.8000 2306.2256
23.8100 2281.8572
23.8200 2228.6652
23.8300 2211.7780
23.8400 2164.5124
23.8500 1901.1508
23.8600 1978.5498
23.8700 2133.9126
23.8800 2077.4064
23.8900 2134.3902
23.9000 2117.2340
23.9100 1975.4148
23.9200 2069.0564
23.9300 2059.0978
23.9400 1964.5386
23.9500 2034.5054
23.9600 1979.6328
23.9700 1923.8320
23.9800 2041.5022
23.9900 1969.7972
24.0000 1873.7108
24.0100 1864.3804
24.0200 2012.2492
24.0300 2073.6874
24.0400 2038.1670
24.0500 2071.3314
24.0600 2005.6970
24.0700 1945.4154
24.0800 2062.3194
24.0900 2040.5840
24.1000 1955.7652
24.1100 1879.9644
24.1200 2005.3808
24.1300 2043.9492
24.1400 2010.1966
24.1500 2305.6486
24.1600 2396.8806
24.1700 2327.8086
24.1800 2249.2388
24.1900 2093.2462
24.2000 2002.0564
24.2100 2085.6582
24.2200 2105.4922
24.2300 2055.3192
24.2400 1968.1176
24.2500 2016.0608
24.2600 2087.5022
24.2700 2145.0918
24.2800 2157.8232
24.2900 2032.3238
24.3000 1910.1282
24.3100 1922.1738
24.3200 2011.1316
24.3300 2043.5086
24.3400 2012.4062
24.3500 2195.4330
24.3600 2145.4824
24.3700 1967.4672
24.3800 2074.4492
24.3900 2077.1966
24.4000 2097.9746
24.4100 2281.4148
24.4200 2198.4828
24.4300 2137.1912
24.4400 2215.1754
24.4500 2266.9626
24.4600 2311.3924
24.4700 2342.3890
24.4800 2306.6932
24.4900 2274.7342
24.5000 2333.4660
24.5100 2578.1298
24.5200 2440.1548
24.5300 2382.6096
24.5400 2648.5140
24.5500 2859.4970
24.5600 2893.3772
24.5700 2810.7508
24.5800 2903.5570
24.5900 3082.6498
24.6000 3260.2262
24.6100 3327.1802
24.6200 3469.9054
24.6300 3681.4626
24.6400 3990.9792
24.6500 4396.8236
24.6600 4645.1406
24.6700 4694.4386
24.6800 4696.4102
24.6900 5064.7268
24.7000 5582.9692
24.7100 5818.4092
24.7200 5560.8740
24.7300 5116.6550
24.7400 4714.8372
24.7500 4667.0680
24.7600 4447.7310
24.7700 3970.3476
24.7800 3735.9860
24.7900 3500.9260
24.8000 3224.9298
24.8100 2895.0880
24.8200 2707.7364
24.8300 2660.1672
24.8400 2748.7142
24.8500 2618.1138
24.8600 2539.3796
24.8700 2574.6638
24.8800 2419.4334
24.8900 2361.6422
24.9000 2369.9452
24.9100 2263.9336
24.9200 2323.6022
24.9300 2280.8382
24.9400 1857.4584
24.9500 1966.9184
24.9600 2178.7962
24.9700 2281.2958
24.9800 2251.9082
24.9900 2131.7978
25.0000 2004.4846
25.0100 2073.1270
25.0200 2169.4850
25.0300 2187.3228
25.0400 2007.0632
25.0500 1918.9526
25.0600 1912.5610
25.0700 1974.6314
25.0800 1987.8674
25.0900 2058.2740
25.1000 2183.5618
25.1100 2269.2410
25.1200 2208.7876
25.1300 2103.4632
25.1400 2182.5602
25.1500 2078.2220
25.1600 1914.3066
25.1700 1795.7462
25.1800 2018.0652
25.1900 2114.9542
25.2000 2052.0974
25.2100 2236.1778
25.2200 2184.4824
25.2300 2056.6790
25.2400 2191.7226
25.2500 2013.9566
25.2600 1836.1234
25.2700 1904.7356
25.2800 1969.3614
25.2900 2158.0624
25.3000 2446.4946
25.3100 2127.9926
25.3200 2052.1046
25.3300 2186.2888
25.3400 2381.4316
25.3500 2216.1164
25.3600 2044.7580
25.3700 2162.9568
25.3800 2004.2998
25.3900 1851.7782
25.4000 1823.6864
25.4100 1892.6416
25.4200 2060.0758
25.4300 2226.5622
25.4400 2164.2954
25.4500 2129.6324
25.4600 2134.0188
25.4700 2172.3148
25.4800 2265.7722
25.4900 2286.9818
25.5000 2216.7138
25.5100 2279.9358
25.5200 2273.4426
25.5300 2177.3112
25.5400 2044.6212
25.5500 2019.3706
25.5600 2050.4692
25.5700 2072.5986
25.5800 2027.9768
25.5900 2049.7366
25.6000 2185.5394
25.6100 2150.5654
25.6200 2162.1514
25.6300 2219.9026
25.6400 2147.4494
25.6500 2215.2270
25.6600 2280.3006
25.6700 2121.4664
25.6800 2191.1156
25.6900 2267.5356
25.7000 2202.1788
25.7100 2097.7082
25.7200 2077.0910
25.7300 2177.8790
25.7400 2398.6232
25.7500 2412.1594
25.7600 2322.1866
25.7700 2335.2200
25.7800 2234.9910
25.7900 2205.3222
25.8000 2371.0384
25.8100 2296.5132
25.8200 2347.6084
25.8300 2502.3174
25.8400 2069.4310
25.8500 2033.8042
25.8600 2247.2590
25.8700 2178.3216
25.8800 1962.0686
25.8900 1876.2012
25.9000 2150.2604
25.9100 2224.1134
25.9200 2142.1402
25.9300 1981.9982
25.9400 2100.4976
25.9500 2256.8992
25.9600 2350.1010
25.9700 2242.0344
25.9800 2218.2928
25.9900 2235.6684
26.0000 2364.1700
26.0100 2427.8194
26.0200 2346.5928
26.0300 2126.6216
26.0400 2233.5844
26.0500 2268.1152
26.0600 2216.7010
26.0700 2263.1836
26.0800 2274.3302
26.0900 2239.1344
26.1000 2159.1594
26.1100 2239.5564
26.1200 2304.3266
26.1300 2269.3138
26.1400 2284.5152
26.1500 2336.4222
26.1600 2399.7222
26.1700 2424.8444
26.1800 2466.6298
26.1900 2490.6506
26.2000 2428.8330
26.2100 2360.9126
26.2200 2456.9932
26.2300 2815.9424
26.2400 3040.6614
26.2500 3248.5786
26.2600 3466.6230
26.2700 3662.4932
26.2800 3819.0084
26.2900 3924.2210
26.3000 3947.7550
26.3100 4016.6660
26.3200 4040.0076
26.3300 3949.0806
26.3400 3664.6462
26.3500 3589.0084
26.3600 3764.9918
26.3700 3930.6800
26.3800 4018.1602
26.3900 3905.7262
26.4000 3341.6262
26.4100 3366.3884
26.4200 3539.0864
26.4300 3466.6214
26.4400 3414.2300
26.4500 3558.9130
26.4600 3847.7180
26.4700 3570.3114
26.4800 3228.2750
26.4900 3035.1132
26.5000 3290.1116
26.5100 3368.9548
26.5200 3334.0800
26.5300 3289.9070
26.5400 3479.4720
26.5500 3716.0804
26.5600 3860.0708
26.5700 3606.0682
26.5800 3419.6646
26.5900 3389.5914
26.6000 3508.8874
26.6100 3434.9946
26.6200 3225.1272
26.6300 2967.8884
26.6400 3015.9334
26.6500 3021.3372
26.6600 2822.6394
26.6700 2741.1252
26.6800 2744.8176
26.6900 2748.1468
26.7000 2509.5060
26.7100 2419.5944
26.7200 2394.8432
26.7300 2288.4728
26.7400 2384.2398
26.7500 2402.7384
26.7600 2195.3268
26.7700 2231.0740
26.7800 2282.8858
26.7900 2264.3880
26.8000 2105.9636
26.8100 2255.4946
26.8200 2436.0052
26.8300 2129.4822
26.8400 2172.0036
26.8500 2235.7248
26.8600 2078.7914
26.8700 2077.4444
26.8800 2171.4056
26.8900 2271.3496
26.9000 2069.7430
26.9100 2157.5974
26.9200 2373.9046
26.9300 2269.0648
26.9400 2139.5376
26.9500 2028.5494
26.9600 1980.5408
26.9700 2199.3716
26.9800 2375.9460
26.9900 2359.4488
27.0000 2055.0650
27.0100 1925.5556
27.0200 1955.1912
27.0300 2185.5700
27.0400 2261.4360
27.0500 2265.0826
27.0600 2243.7024
27.0700 2307.4264
27.0800 2211.5386
27.0900 1919.1006
27.1000 2022.7624
27.1100 1965.9656
27.1200 1829.3796
27.1300 2124.3430
27.1400 2106.4274
27.1500 2023.6588
27.1600 2221.0066
27.1700 2297.3098
27.1800 2314.0704
27.1900 2307.0722
27.2000 2168.7564
27.2100 2095.5652
27.2200 2067.6132
27.2300 1959.1896
27.2400 2062.6954
27.2500 2294.2368
27.2600 2518.7752
27.2700 2486.2938
27.2800 2351.6464
27.2900 2220.9042
27.3000 2268.7802
27.3100 2373.2188
27.3200 2449.7714
27.3300 2312.2010
27.3400 2167.9922
27.3500 2155.5272
27.3600 2478.2928
27.3700 2499.6780
27.3800 2407.4930
27.3900 2344.3634
27.4000 2442.0042
27.4100 2534.2108
27.4200 2521.8560
27.4300 2229.6882
27.4400 2215.1674
27.4500 2384.7120
27.4600 2453.7234
27.4700 2602.2150
27.4800 2647.3242
27.4900 2445.1762
27.5000 2628.9900
27.5100 2777.4036
27.5200 2781.9114
27.5300 2977.5802
27.5400 2991.0474
27.5500 2921.5438
27.5600 3107.4630
27.5700 2984.5090
27.5800 2863.3888
27.5900 3065.4404
27.6000 2981.4690
27.6100 2933.1570
27.6200 3021.8102
27.6300 2890.9132
27.6400 2841.4914
27.6500 2835.0072
27.6600 2610.8398
27.6700 2506.1126
27.6800 2484.1658
27.6900 2485.3356
27.7000 2457.6634
27.7100 2429.4830
27.7200 2417.0050
27.7300 2417.1258
27.7400 2296.3316
27.7500 2102.5850
27.7600 2079.5216
27.7700 2075.5854
27.7800 2093.7574
27.7900 2177.9754
27.8000 2379.8348
27.8100 2444.4202
27.8200 2236.9634
27.8300 2234.0970
27.8400 2254.4554
27.8500 2263.9166
27.8600 2327.9012
27.8700 2181.0218
27.8800 1968.4158
27.8900 2321.3288
27.9000 2463.4348
27.9100 2363.5676
27.9200 1980.4426
27.9300 2016.5534
27.9400 2049.6604
27.9500 1977.8574
27.9600 1985.8816
27.9700 2151.0486
27.9800 2290.5668
27.9900 2042.2764
28.0000 1986.3658
28.0100 2023.4750
28.0200 2061.2522
28.0300 2131.2578
28.0400 2068.2276
28.0500 1859.4488
28.0600 2042.4644
28.0700 2141.3498
28.0800 2115.5662
28.0900 1958.1424
28.1000 2245.1622
28.1100 2591.1160
28.1200 2595.4170
28.1300 2551.7774
28.1400 2511.3518
28.1500 2472.3330
28.1600 2321.3242
28.1700 2176.2230
28.1800 2121.2770
28.1900 2326.9702
28.2000 2385.7630
28.2100 2402.8392
28.2200 2525.2024
28.2300 2863.6292
28.2400 3051.2736
28.2500 2935.9424
28.2600 2678.2084
28.2700 2656.1772
28.2800 2814.5428
28.2900 2728.4314
28.3000 2984.2850
28.3100 3295.0246
28.3200 3215.7956
28.3300 3306.3424
28.3400 3359.9256
28.3500 3281.8028
28.3600 3541.4994
28.3700 3693.9454
28.3800 3731.2742
28.3900 4086.5366
28.4000 4241.2592
28.4100 4314.4756
28.4200 4577.8264
28.4300 4803.3696
28.4400 5064.9938
28.4500 5436.1354
28.4600 5884.6532
28.4700 6311.9874
28.4800 6716.7110
28.4900 7232.5124
28.5000 7720.8236
28.5100 8348.0926
28.5200 9514.1154
28.5300 10818.3410
28.5400 12239.0534
28.5500 13833.6314
28.5600 15679.1392
28.5700 16878.9764
28.5800 17120.9208
28.5900 16936.0666
28.6000 16741.0238
28.6100 16329.5288
28.6200 15031.6844
28.6300 14161.8428
28.6400 13585.9120
28.6500 13101.4710
28.6600 12137.5620
28.6700 11064.7838
28.6800 10015.4886
28.6900 8835.3130
28.7000 7856.0516
28.7100 7011.1674
28.7200 5991.8600
28.7300 5469.8472
28.7400 5283.3924
28.7500 4619.7814
28.7600 4123.7492
28.7700 3875.6378
28.7800 3973.4790
28.7900 3962.6988
28.8000 3841.6548
28.8100 3627.4572
28.8200 3358.7090
28.8300 3154.1712
28.8400 3065.6182
28.8500 3172.6080
28.8600 3178.8000
28.8700 2983.7980
28.8800 2575.2738
28.8900 2607.8270
28.9000 2588.5056
28.9100 2446.6736
28.9200 2270.0230
28.9300 2440.1276
28.9400 2705.5704
28.9500 2672.4770
28.9600 2432.0022
28.9700 2242.8586
28.9800 2277.2056
28.9900 2297.1150
29.0000 2372.4726
29.0100 2460.6600
29.0200 2272.0420
29.0300 2301.9364
29.0400 2433.5078
29.0500 2346.5632
29.0600 2400.3692
29.0700 2387.3192
29.0800 2129.2820
29.0900 2123.3304
29.1000 2176.8506
29.1100 2241.5810
29.1200 2389.3814
29.1300 2379.9140
29.1400 2252.4860
29.1500 2161.1994
29.1600 2329.8192
29.1700 2503.3216
29.1800 2413.5114
29.1900 2138.7658
29.2000 2020.5474
29.2100 2146.3908
29.2200 2024.9782
29.2300 1975.1174
29.2400 2059.8780
29.2500 2295.0264
29.2600 2326.9856
29.2700 2258.5854
29.2800 2213.4006
29.2900 2257.1318
29.3000 2283.0518
29.3100 2238.9706
29.3200 2186.2838
29.3300 2131.9612
29.3400 2104.4334
29.3500 2190.2538
29.3600 2314.6190
29.3700 2382.6550
29.3800 2274.2524
29.3900 2299.3232
29.4000 2355.1760
29.4100 2399.1476
29.4200 2599.9646
29.4300 2671.3420
29.4400 2631.2050
29.4500 2832.5688
29.4600 3098.0026
29.4700 3302.4078
29.4800 3260.3996
29.4900 2970.0796
29.5000 2760.5600
29.5100 2845.5118
29.5200 2814.4404
29.5300 2693.0948
29.5400 2548.0036
29.5500 2628.3582
29.5600 2686.4922
29.5700 2708.0528
29.5800 2713.9640
29.5900 2397.1200
29.6000 2165.2928
29.6100 2335.0138
29.6200 2155.4912
29.6300 2070.3220
29.6400 2215.4114
29.6500 2346.5648
29.6600 2346.3990
29.6700 2247.6776
29.6800 2137.2894
29.6900 2067.3738
29.7000 2026.8970
29.7100 2015.4854
29.7200 2080.7278
29.7300 2108.2956
29.7400 2065.4764
29.7500 2088.5504
29.7600 2202.8944
29.7700 2347.1062
29.7800 2219.5728
29.7900 2226.5272
29.8000 2238.0076
29.8100 2105.3958
29.8200 1998.6656
29.8300 1985.1710
29.8400 2081.9564
29.8500 2082.0410
29.8600 2058.7814
29.8700 2024.4122
29.8800 1962.3768
29.8900 2023.0888
29.9000 2136.7252
29.9100 2197.7730
29.9200 2101.4404
29.9300 2009.6542
29.9400 2013.2428
29.9500 2221.6814
29.9600 2215.8012
29.9700 2042.5736
29.9800 2143.3756
29.9900 2210.5800
30.0000 2239.9904
30.0100 2274.5308
30.0200 2234.5424
30.0300 2122.5886
30.0400 1983.2436
30.0500 2298.1130
30.0600 2392.1138
30.0700 2175.2788
30.0800 2226.9734
30.0900 2265.3722
30.1000 2319.5582
30.1100 2522.5838
30.1200 2662.0832
30.1300 2681.2502
30.1400 2559.0624
30.1500 2674.5314
30.1600 2787.4438
30.1700 2856.2198
30.1800 3129.9808
30.1900 3405.0000
30.2000 3586.2732
30.2100 3519.1436
30.2200 3326.2474
30.2300 3208.5440
30.2400 3368.2396
30.2500 3662.6542
30.2600 3726.7546
30.2700 3474.7424
30.2800 3494.8494
30.2900 3558.1912
30.3000 3616.5990
30.3100 3675.4766
30.3200 3885.1502
30.3300 4007.1156
30.3400 3747.4250
30.3500 3542.2770
30.3600 3469.7926
30.3700 3551.3288
30.3800 3563.9852
30.3900 3562.9244
30.4000 3565.7420
30.4100 3581.9352
30.4200 3454.9698
30.4300 3384.8698
30.4400 3637.3660
30.4500 3417.3122
30.4600 3179.0070
30.4700 3188.9650
30.4800 3211.2154
30.4900 3219.9100
30.5000 3252.0764
30.5100 3455.9250
30.5200 3301.4242
30.5300 2973.9440
30.5400 2814.6904
30.5500 2862.6986
30.5600 2840.0194
30.5700 2587.1120
30.5800 2601.9068
30.5900 2611.1158
30.6000 2588.6986
30.6100 2794.3636
30.6200 2876.5104
30.6300 2860.7570
30.6400 2649.6440
30.6500 2343.3772
30.6600 2216.8066
30.6700 2526.3754
30.6800 2636.4782
30.6900 2574.3640
30.7000 2386.0282
30.7100 2290.3116
30.7200 2282.0676
30.7300 2322.6046
30.7400 2343.5118
30.7500 2224.5686
30.7600 2075.2788
30.7700 1998.9862
30.7800 1958.4242
30.7900 2038.5334
30.8000 2240.3600
30.8100 1984.6862
30.8200 1950.7648
30.8300 2084.5668
30.8400 2079.6264
30.8500 1974.9124
30.8600 1915.2646
30.8700 2045.0654
30.8800 1934.4188
30.8900 1952.1948
30.9000 2217.4402
30.9100 2079.7344
30.9200 2001.4888
30.9300 2023.5350
30.9400 1957.7862
30.9500 1961.4878
30.9600 1978.5814
30.9700 1921.6940
30.9800 2040.4680
30.9900 2121.3746
31.0000 2054.3968
31.0100 1932.2764
31.0200 1918.2730
31.0300 2047.1922
31.0400 2287.5132
31.0500 2261.0000
31.0600 2134.5072
31.0700 2183.6068
31.0800 1930.5690
31.0900 1832.2802
31.1000 2173.7364
31.1100 2105.3010
31.1200 2084.2604
31.1300 2154.8808
31.1400 1885.4830
31.1500 1992.4036
31.1600 2264.6306
31.1700 2213.2006
31.1800 2345.6514
31.1900 2447.2440
31.2000 2347.9110
31.2100 2513.9806
31.2200 2623.8830
31.2300 2613.5130
31.2400 2784.7336
31.2500 2864.7886
31.2600 2864.4874
31.2700 2877.9490
31.2800 2713.1820
31.2900 2524.4954
31.3000 2473.0216
31.3100 2590.3644
31.3200 2511.0232
31.3300 2176.7026
31.3400 2278.1652
31.3500 2213.6454
31.3600 2077.6306
31.3700 2385.8606
31.3800 2447.0190
31.3900 2395.3250
31.4000 2402.2906
31.4100 2236.8118
31.4200 2261.6312
31.4300 2546.8628
31.4400 2139.4552
31.4500 1997.1364
31.4600 2189.3992
31.4700 2311.4764
31.4800 2343.9426
31.4900 2335.1132
31.5000 2470.2746
31.5100 2461.0164
31.5200 2413.2604
31.5300 2351.2306
31.5400 2156.4962
31.5500 2057.4120
31.5600 2099.3122
31.5700 2228.8788
31.5800 2211.7196
31.5900 2160.6354
31.6000 2267.5132
31.6100 2186.5046
31.6200 2048.4706
31.6300 1952.1142
31.6400 1954.3832
31.6500 2098.1548
31.6600 2330.1948
31.6700 2265.5388
31.6800 2340.6984
31.6900 2460.0302
31.7000 2390.4130
31.7100 2415.4322
31.7200 2548.1698
31.7300 2765.7364
31.7400 2603.4632
31.7500 2616.9858
31.7600 2895.1038
31.7700 2808.8568
31.7800 2778.3646
31.7900 2884.4900
31.8000 3174.0750
31.8100 3305.9432
31.8200 3367.7932
31.8300 3441.3384
31.8400 3514.3824
31.8500 3502.6368
31.8600 3410.3384
31.8700 3460.6150
31.8800 3803.5274
31.8900 4263.3654
31.9000 4369.7230
31.9100 4538.9602
31.9200 4717.1696
31.9300 4821.7362
31.9400 5138.6012
31.9500 5625.5606
31.9600 6269.0394
31.9700 6952.0066
31.9800 7564.4912
31.9900 8186.8016
32.0000 9114.5254
32.0100 9805.0994
32.0200 10351.0468
32.0300 10927.7476
32.0400 11291.5090
32.0500 11160.7768
32.0600 10367.6452
32.0700 9690.1012
32.0800 9121.4122
32.0900 8711.5866
32.1000 8648.0448
32.1100 8139.5726
32.1200 7424.9750
32.1300 6933.4448
32.1400 6297.0520
32.1500 5513.8264
32.1600 4633.7744
32.1700 4258.2516
32.1800 3873.8222
32.1900 3422.4650
32.2000 3321.5940
32.2100 3268.9834
32.2200 3152.0584
32.2300 2841.2054
32.2400 2611.0224
32.2500 2454.0632
32.2600 2378.3806
32.2700 2445.0592
32.2800 2375.4502
32.2900 2138.0182
32.3000 2113.2458
32.3100 2084.3678
32.3200 2050.1360
32.3300 2084.7504
32.3400 2078.3240
32.3500 2020.2192
32.3600 1918.5280
32.3700 2060.9942
32.3800 2079.8464
32.3900 1874.0900
32.4000 1855.3390
32.4100 1815.0330
32.4200 1740.9532
32.4300 1702.2230
32.4400 1788.5170
32.4500 1868.1000
32.4600 1806.6096
32.4700 1916.8512
32.4800 1983.0226
32.4900 1897.3210
32.5000 1759.3778
32.5100 1749.4338
32.5200 1839.5818
32.5300 1899.2478
32.5400 1830.5816
32.5500 1699.4666
32.5600 1587.1020
32.5700 1795.8722
32.5800 1884.1870
32.5900 1644.5652
32.6000 1703.8598
32.6100 1771.2638
32.6200 1791.0556
32.6300 1838.0960
32.6400 1870.0220
32.6500 1886.8654
32.6600 1890.8730
32.6700 1875.0880
32.6800 1870.8002
32.6900 1896.7244
32.7000 1888.9382
32.7100 1825.2510
32.7200 1779.8828
32.7300 2087.7410
32.7400 2198.1544
32.7500 2141.4070
32.7600 2059.5016
32.7700 1969.9360
32.7800 1926.8348
32.7900 1979.7428
32.8000 2051.9056
32.8100 2062.7442
32.8200 1987.3318
32.8300 1867.9416
32.8400 1786.9968
32.8500 1747.9260
32.8600 1741.5974
32.8700 1825.3666
32.8800 1912.4770
32.8900 1926.9358
32.9000 1834.8348
32.9100 1728.9698
32.9200 1673.2208
32.9300 1798.3504
32.9400 1771.3596
32.9500 1599.2938
32.9600 1429.3936
32.9700 1523.4684
32.9800 1671.4050
32.9900 1646.5848
33.0000 1628.7140
33.0100 1599.2668
33.0200 1550.7204
33.0300 1528.6684
33.0400 1574.3690
33.0500 1653.5214
33.0600 1651.6044
33.0700 1778.2320
33.0800 1846.4582
33.0900 1592.7464
33.1000 1509.4006
33.1100 1519.3584
33.1200 1561.3756
33.1300 1479.1366
33.1400 1472.4288
33.1500 1562.8932
33.1600 1649.0540
33.1700 1629.3088
33.1800 1574.6280
33.1900 1587.0696
33.2000 1465.9066
33.2100 1368.7444
33.2200 1401.9696
33.2300 1430.1144
33.2400 1497.5090
33.2500 1585.9578
33.2600 1562.2760
33.2700 1543.8992
33.2800 1550.8062
33.2900 1591.0654
33.3000 1559.7032
33.3100 1593.0804
33.3200 1760.5266
33.3300 1465.1064
33.3400 1400.3836
33.3500 1687.1604
33.3600 1634.4974
33.3700 1668.2570
33.3800 1771.2110
33.3900 1782.8212
33.4000 1664.7156
33.4100 1557.7210
33.4200 1596.0924
33.4300 1743.0112
33.4400 1801.9068
33.4500 1726.1252
33.4600 1762.5416
33.4700 1743.7684
33.4800 1728.1942
33.4900 1933.3410
33.5000 2042.1986
33.5100 1981.6440
33.5200 1677.5858
33.5300 1570.0084
33.5400 1598.8934
33.5500 1718.4420
33.5600 1678.0180
33.5700 1632.3140
33.5800 1602.4960
33.5900 1579.6758
33.6000 1429.5248
33.6100 1324.9636
33.6200 1499.1774
33.6300 1559.8936
33.6400 1503.9624
33.6500 1360.6740
33.6600 1443.0426
33.6700 1477.0014
33.6800 1468.1476
33.6900 1670.3364
33.7000 1616.1006
33.7100 1477.2650
33.7200 1555.6488
33.7300 1615.0248
33.7400 1567.8320
33.7500 1393.7104
33.7600 1499.2668
33.7700 1642.3950
33.7800 1701.2158
33.7900 1489.5658
33.8000 1377.7876
33.8100 1386.2394
33.8200 1491.5308
33.8300 1546.5314
33.8400 1632.3752
33.8500 1783.2906
33.8600 1569.9532
33.8700 1496.8444
33.8800 1655.0580
33.8900 1579.8966
33.9000 1425.4536
33.9100 1322.0280
33.9200 1476.1918
33.9300 1427.9816
33.9400 1395.5576
33.9500 1590.5332
33.9600 1659.8662
33.9700 1628.7816
33.9800 1515.4856
33.9900 1405.2936
34.0000 1393.8060
34.0100 1443.8460
34.0200 1441.4058
34.0300 1474.2568
34.0400 1533.5226
34.0500 1596.0628
34.0600 1496.0278
34.0700 1420.2744
34.0800 1436.2712
34.0900 1355.8716
34.1000 1353.9944
34.1100 1439.1728
34.1200 1537.9686
34.1300 1521.0544
34.1400 1501.3938
34.1500 1619.3548
34.1600 1573.1452
34.1700 1513.1142
34.1800 1510.1652
34.1900 1421.8706
34.2000 1398.5220
34.2100 1409.9400
34.2200 1233.6954
34.2300 1416.4458
34.2400 1717.4304
34.2500 1499.9638
34.2600 1548.6448
34.2700 1552.6304
34.2800 1353.9798
34.2900 1374.6412
34.3000 1520.3744
34.3100 1709.4182
34.3200 1725.3914
34.3300 1610.0154
34.3400 1484.0472
34.3500 1536.2740
34.3600 1640.1638
34.3700 1681.2092
34.3800 1584.9296
34.3900 1604.8000
34.4000 1600.0164
34.4100 1540.6390
34.4200 1430.7734
34.4300 1463.0388
34.4400 1555.4384
34.4500 1541.2306
34.4600 1513.9902
34.4700 1515.0854
34.4800 1566.3116
34.4900 1474.8566
34.5000 1441.4170
34.5100 1512.2872
34.5200 1448.3726
34.5300 1494.9826
34.5400 1606.9944
34.5500 1583.3358
34.5600 1560.3992
34.5700 1561.6060
34.5800 1601.0564
34.5900 1363.1346
34.6000 1244.8984
34.6100 1377.9516
34.6200 1501.0384
34.6300 1565.1014
34.6400 1550.0350
34.6500 1419.9560
34.6600 1574.7484
34.6700 1774.7194
34.6800 1685.0944
34.6900 1421.3002
34.7000 1276.3740
34.7100 1401.7642
34.7200 1526.9542
34.7300 1571.5928
34.7400 1541.5628
34.7500 1515.7686
34.7600 1530.8692
34.7700 1577.0328
34.7800 1643.2880
34.7900 1650.1496
34.8000 1660.3192
34.8100 1688.5116
34.8200 1499.1336
34.8300 1442.4742
34.8400 1549.0778
34.8500 1518.8830
34.8600 1581.8198
34.8700 1698.3704
34.8800 1754.5438
34.8900 1616.2420
34.9000 1464.5512
34.9100 1450.0968
34.9200 1614.8590
34.9300 1634.7206
34.9400 1499.8620
34.9500 1715.5278
34.9600 1663.3626
34.9700 1525.5786
34.9800 1830.0716
34.9900 1888.8026
35.0000 1819.3604
35.0100 1754.8862
35.0200 1865.3532
35.0300 1971.1778
35.0400 1999.6618
35.0500 1972.5658
35.0600 1984.9184
35.0700 2037.3664
35.0800 2100.2772
35.0900 2186.9874
35.1000 2255.5810
35.1100 2479.1928
35.1200 2615.4200
35.1300 2817.9214
35.1400 3141.7104
35.1500 3540.7694
35.1600 3756.0598
35.1700 3814.2390
35.1800 3912.4488
35.1900 3921.1428
35.2000 3968.5572
35.2100 4211.4438
35.2200 4124.7014
35.2300 4218.9420
35.2400 4689.5396
35.2500 4551.4378
35.2600 4635.3658
35.2700 4976.4898
35.2800 4811.7538
35.2900 4597.1516
35.3000 4365.5940
35.3100 4139.8696
35.3200 4016.8286
35.3300 3784.1542
35.3400 3359.4188
35.3500 3434.7530
35.3600 3334.6026
35.3700 2944.3080
35.3800 2617.0244
35.3900 2507.1314
35.4000 2577.3928
35.4100 2775.7632
35.4200 2669.8144
35.4300 2422.7916
35.4400 2166.3374
35.4500 2034.7036
35.4600 1952.7450
35.4700 1885.6886
35.4800 1848.9814
35.4900 1874.5126
35.5000 1832.7524
35.5100 1458.4710
35.5200 1537.4312
35.5300 1650.7924
35.5400 1434.1760
35.5500 1533.1662
35.5600 1647.6908
35.5700 1646.1250
35.5800 1516.4082
35.5900 1441.3436
35.6000 1454.3516
35.6100 1572.8586
35.6200 1607.1480
35.6300 1569.3444
35.6400 1473.7400
35.6500 1438.6796
35.6600 1432.9290
35.6700 1441.9120
35.6800 1451.0384
35.6900 1538.7864
35.7000 1617.4234
35.7100 1402.2866
35.7200 1346.9224
35.7300 1403.0986
35.7400 1476.4198
35.7500 1359.5570
35.7600 1260.3254
35.7700 1304.7046
35.7800 1484.6024
35.7900 1563.5880
35.8000 1510.8528
35.8100 1409.4758
35.8200 1445.6264
35.8300 1571.4908
35.8400 1703.2040
35.8500 1581.4014
35.8600 1480.9332
35.8700 1553.3898
35.8800 1458.4922
35.8900 1445.9000
35.9000 1548.5670
35.9100 1600.7390
35.9200 1539.6248
35.9300 1495.7262
35.9400 1696.1510
35.9500 1788.1566
35.9600 1777.9102
35.9700 1679.2014
35.9800 1678.8646
35.9900 1710.3286
36.0000 1739.9556
36.0100 1716.2924
36.0200 1559.6864
36.0300 1415.1626
36.0400 1584.2082
36.0500 1591.0198
36.0600 1543.6718
36.0700 1538.4306
36.0800 1396.9196
36.0900 1286.4658
36.1000 1302.2094
36.1100 1545.7622
36.1200 1584.2016
36.1300 1467.9414
36.1400 1508.3126
36.1500 1481.7372
36.1600 1410.9324
36.1700 1322.1178
36.1800 1316.7782
36.1900 1299.4994
36.2000 1255.4438
36.2100 1378.5812
36.2200 1458.3072
36.2300 1465.5472
36.2400 1434.4852
36.2500 1490.0698
36.2600 1513.4028
36.2700 1351.9524
36.2800 1336.4212
36.2900 1420.6278
36.3000 1564.3590
36.3100 1384.6258
36.3200 1322.1528
36.3300 1378.8038
36.3400 1338.1780
36.3500 1308.5258
36.3600 1290.9762
36.3700 1269.9532
36.3800 1215.9628
36.3900 1240.0288
36.4000 1394.7180
36.4100 1368.1532
36.4200 1393.3158
36.4300 1483.9210
36.4400 1427.8410
36.4500 1295.6364
36.4600 1195.4146
36.4700 1291.3712
36.4800 1240.4544
36.4900 1123.5492
36.5000 1027.9778
36.5100 1301.1924
36.5200 1461.7942
36.5300 1399.2472
36.5400 1392.1862
36.5500 1481.8652
36.5600 1568.4462
36.5700 1446.6166
36.5800 1288.4648
36.5900 1223.3480
36.6000 1362.2994
36.6100 1463.6956
36.6200 1470.6756
36.6300 1375.4584
36.6400 1295.7132
36.6500 1255.6846
36.6600 1248.6372
36.6700 1262.9094
36.6800 1411.5824
36.6900 1476.4706
36.7000 1234.7378
36.7100 1242.4298
36.7200 1272.1858
36.7300 1227.6898
36.7400 1206.9686
36.7500 1297.4038
36.7600 1413.2264
36.7700 1284.6890
36.7800 1346.4810
36.7900 1401.7642
36.8000 1190.0414
36.8100 1279.6432
36.8200 1341.5850
36.8300 1227.2256
36.8400 1287.9516
36.8500 1371.1472
36.8600 1417.5116
36.8700 1361.4702
36.8800 1492.6600
36.8900 1586.7694
36.9000 1292.4472
36.9100 1218.7692
36.9200 1210.5622
36.9300 1167.3830
36.9400 1131.7352
36.9500 1206.1706
36.9600 1347.5480
36.9700 1279.0064
36.9800 1308.2778
36.9900 1389.4836
37.0000 1245.4428
37.0100 1237.2502
37.0200 1231.8106
37.0300 1163.4198
37.0400 1240.6380
37.0500 1249.0496
37.0600 1166.5294
37.0700 1236.0138
37.0800 1381.1008
37.0900 1461.5108
37.1000 1224.5906
37.1100 1193.1118
37.1200 1263.2948
37.1300 1332.7620
37.1400 1329.7972
37.1500 1331.3856
37.1600 1359.2824
37.1700 1269.5450
37.1800 1273.2420
37.1900 1295.9380
37.2000 1135.3906
37.2100 1179.2556
37.2200 1233.6058
37.2300 1094.3244
37.2400 1120.9382
37.2500 1274.2568
37.2600 1488.3366
37.2700 1415.3730
37.2800 1383.9036
37.2900 1415.9942
37.3000 1390.1282
37.3100 1240.1394
37.3200 1152.6448
37.3300 1354.9410
37.3400 1372.8408
37.3500 1384.8598
37.3600 1463.2506
37.3700 1414.5142
37.3800 1411.3096
37.3900 1469.8582
37.4000 1511.6990
37.4100 1517.6256
37.4200 1545.5708
37.4300 1676.9204
37.4400 1701.3318
37.4500 1747.9186
37.4600 1870.4804
37.4700 1757.6320
37.4800 1695.0526
37.4900 1717.9268
37.5000 1648.8506
37.5100 1696.9976
37.5200 1805.4458
37.5300 1855.1830
37.5400 1738.4896
37.5500 1673.2782
37.5600 1819.1344
37.5700 1956.7440
37.5800 1973.5568
37.5900 1886.2188
37.6000 1951.6418
37.6100 1877.2702
37.6200 1752.6348
37.6300 1815.1360
37.6400 1762.6664
37.6500 1727.2900
37.6600 1834.7590
37.6700 1909.0000
37.6800 1993.0762
37.6900 2061.8924
37.7000 1898.0112
37.7100 1847.2686
37.7200 1872.6562
37.7300 1772.8002
37.7400 1796.6040
37.7500 1840.2862
37.7600 1787.6716
37.7700 1724.1756
37.7800 1750.2190
37.7900 1864.7580
37.8000 1730.4792
37.8100 1594.7240
37.8200 1508.6466
37.8300 1479.9428
37.8400 1598.1514
37.8500 1734.8926
37.8600 1560.4456
37.8700 1423.8746
37.8800 1342.0204
37.8900 1352.9398
37.9000 1458.2588
37.9100 1461.5494
37.9200 1391.8366
37.9300 1476.1376
37.9400 1281.9230
37.9500 1105.1228
37.9600 1405.1214
37.9700 1532.4516
37.9800 1529.7108
37.9900 1437.4040
38.0000 1427.9980
38.0100 1496.9204
38.0200 1606.1052
38.0300 1308.7820
38.0400 1174.8676
38.0500 1197.1076
38.0600 1382.7658
38.0700 1392.5192
38.0800 1367.6490
38.0900 1405.8258
38.1000 1385.7800
38.1100 1333.0642
38.1200 1293.0376
38.1300 1424.2436
38.1400 1380.7110
38.1500 1245.8032
38.1600 1252.7924
38.1700 1326.2204
38.1800 1350.8448
38.1900 1238.0636
38.2000 1324.7022
38.2100 1401.9440
38.2200 1383.7080
38.2300 1175.5860
38.2400 1110.7688
38.2500 1170.8576
38.2600 1209.2058
38.2700 1086.8278
38.2800 1030.7734
38.2900 1266.0576
38.3000 1290.3410
38.3100 1211.1348
38.3200 1120.5510
38.3300 1296.8184
38.3400 1259.7148
38.3500 1069.9342
38.3600 1118.3982
38.3700 1166.0860
38.3800 1197.2348
38.3900 1216.5334
38.4000 1167.2980
38.4100 1188.5052
38.4200 1329.0362
38.4300 1321.0928
38.4400 1177.9138
38.4500 1015.6098
38.4600 1176.9416
38.4700 1209.0396
38.4800 1144.9316
38.4900 1069.0518
38.5000 952.7196
38.5100 923.8370
38.5200 1038.2048
38.5300 944.8626
38.5400 945.6966
38.5500 1053.2970
38.5600 998.3568
38.5700 1038.8380
38.5800 1137.6838
38.5900 1198.3766
38.6000 1240.8684
38.6100 1233.3160
38.6200 1159.6530
38.6300 1214.7352
38.6400 1190.1662
38.6500 1083.6536
38.6600 1198.3704
38.6700 1267.8736
38.6800 1290.4768
38.6900 1326.7860
38.7000 1321.8964
38.7100 1290.9934
38.7200 1243.4154
38.7300 1191.4942
38.7400 1159.7820
38.7500 1160.3880
38.7600 1195.0458
38.7700 1242.7620
38.7800 1282.3126
38.7900 1276.8158
38.8000 1361.5554
38.8100 1341.1726
38.8200 1023.8820
38.8300 1052.0500
38.8400 1153.9522
38.8500 1214.3132
38.8600 1274.1308
38.8700 1168.0872
38.8800 972.6858
38.8900 1285.4352
38.9000 1310.1132
38.9100 1268.8438
38.9200 1376.0782
38.9300 1194.6440
38.9400 1062.4168
38.9500 1156.8064
38.9600 1320.3014
38.9700 1317.3110
38.9800 1213.1404
38.9900 1361.5366
39.0000 1174.1708
39.0100 952.1938
39.0200 1161.2398
39.0300 1203.8556
39.0400 1293.4920
39.0500 1545.4870
39.0600 1421.1466
39.0700 1363.9860
39.0800 1396.8974
39.0900 1263.9948
39.1000 1257.6190
39.1100 1310.8998
39.1200 1282.8472
39.1300 1373.1464
39.1400 1454.4756
39.1500 1428.8902
39.1600 1364.6406
39.1700 1299.7558
39.1800 1235.3590
39.1900 1127.5808
39.2000 1097.7082
39.2100 1127.5572
39.2200 1166.7360
39.2300 1199.5296
39.2400 1291.8280
39.2500 1471.8186
39.2600 1241.0146
39.2700 1083.9412
39.2800 1122.9540
39.2900 990.6840
39.3000 1072.4652
39.3100 1255.6664
39.3200 1172.6050
39.3300 1071.2510
39.3400 1018.5762
39.3500 1086.2060
39.3600 1374.4800
39.3700 1484.3134
39.3800 1289.0614
39.3900 1246.6694
39.4000 1249.7866
39.4100 1258.4222
39.4200 1230.9210
39.4300 1167.4934
39.4400 1180.4174
39.4500 1391.9774
39.4600 1292.3202
39.4700 1175.9484
39.4800 1176.9450
39.4900 1102.0036
39.5000 1121.8822
39.5100 1244.0826
39.5200 1375.9690
39.5300 1315.2454
39.5400 1183.9252
39.5500 1158.2798
39.5600 1288.9064
39.5700 1361.9454
39.5800 1278.8996
39.5900 1401.1842
39.6000 1436.8074
39.6100 1340.2512
39.6200 1245.5258
39.6300 1400.5350
39.6400 1583.7992
39.6500 1420.1362
39.6600 1376.8968
39.6700 1343.6964
39.6800 1248.7648
39.6900 1321.0250
39.7000 1300.6338
39.7100 1147.5098
39.7200 1072.2794
39.7300 1102.2972
39.7400 1174.0070
39.7500 1069.8426
39.7600 1174.9272
39.7700 1305.6104
39.7800 1317.9780
39.7900 1267.2560
39.8000 1224.7676
39.8100 1191.1056
39.8200 1041.3152
39.8300 1101.0416
39.8400 1256.5982
39.8500 1170.5110
39.8600 1219.7766
39.8700 1298.7628
39.8800 1287.8524
39.8900 1287.8014
39.9000 1278.4976
39.9100 1254.3932
39.9200 1232.5036
39.9300 1183.0616
39.9400 1122.2256
39.9500 1114.6780
39.9600 1165.2956
39.9700 1226.2246
39.9800 1241.3022
39.9900 1161.0404
40.0000 1145.3366
40.0100 1269.4734
40.0200 1387.7624
40.0300 1382.8576
40.0400 1305.9024
40.0500 1381.2572
40.0600 1341.6122
40.0700 1220.4064
40.0800 1082.5056
40.0900 1200.1450
40.1000 1283.6982
40.1100 1203.9218
40.1200 1242.5022
40.1300 1338.5554
40.1400 1425.1268
40.1500 1325.2114
40.1600 1295.2110
40.1700 1316.1484
40.1800 1322.6966
40.1900 1348.8520
40.2000 1392.1242
40.2100 1435.2634
40.2200 1327.3300
40.2300 1258.7622
40.2400 1286.3016
40.2500 1378.7156
40.2600 1347.6442
40.2700 1262.4902
40.2800 1276.5176
40.2900 1253.9786
40.3000 1230.2634
40.3100 1235.1132
40.3200 1187.5652
40.3300 1171.2764
40.3400 1209.9998
40.3500 1246.6358
40.3600 1189.8466
40.3700 1115.4836
40.3800 1212.3882
40.3900 1262.1678
40.4000 1292.5294
40.4100 1337.1298
40.4200 1328.4524
40.4300 1390.5452
40.4400 1531.8110
40.4500 1439.0332
40.4600 1326.7914
40.4700 1287.1972
40.4800 1454.4864
40.4900 1565.4448
40.5000 1625.6482
40.5100 1650.2122
40.5200 1594.5336
40.5300 1620.3872
40.5400 1771.0170
40.5500 1687.7360
40.5600 1559.1876
40.5700 1502.0750
40.5800 1737.0062
40.5900 1824.7160
40.6000 1816.9202
40.6100 1918.1748
40.6200 2143.8714
40.6300 2329.2322
40.6400 2381.7100
40.6500 2534.4050
40.6600 2506.0074
40.6700 2377.3364
40.6800 2704.3050
40.6900 2722.2320
40.7000 2620.3862
40.7100 2813.8670
40.7200 3216.6152
40.7300 3533.2126
40.7400 3577.6200
40.7500 3728.5190
40.7600 3914.2150
40.7700 4080.2754
40.7800 4470.8614
40.7900 5043.8228
40.8000 5789.3036
40.8100 6608.7194
40.8200 7086.6526
40.8300 7209.3110
40.8400 6971.0246
40.8500 7271.8536
40.8600 7500.1486
40.8700 7418.0124
40.8800 7064.3514
40.8900 6451.4862
40.9000 5837.4460
40.9100 5760.3196
40.9200 5758.1492
40.9300 5617.5582
40.9400 5179.1916
40.9500 5197.7316
40.9600 5079.6270
40.9700 4645.6542
40.9800 4391.1978
40.9900 4014.2818
41.0000 3501.7220
41.0100 2949.2948
41.0200 2607.3282
41.0300 2464.1312
41.0400 2520.6068
41.0500 2352.9130
41.0600 2271.4978
41.0700 2367.5382
41.0800 2057.4228
41.0900 1842.5704
41.1000 1794.7924
41.1100 1800.2082
41.1200 1807.8086
41.1300 1819.1178
41.1400 1846.7712
41.1500 1894.6372
41.1600 1987.3228
41.1700 2119.4248
41.1800 2075.0794
41.1900 1910.1430
41.2000 1735.5532
41.2100 1885.2626
41.2200 1855.6342
41.2300 1709.2716
41.2400 1617.2850
41.2500 1770.0700
41.2600 1840.4590
41.2700 1621.1220
41.2800 1575.2072
41.2900 1555.7034
41.3000 1517.0444
41.3100 1469.4684
41.3200 1489.1024
41.3300 1525.2370
41.3400 1479.0118
41.3500 1563.5588
41.3600 1623.6844
41.3700 1521.0914
41.3800 1371.8256
41.3900 1305.0132
41.4000 1341.2936
41.4100 1321.7726
41.4200 1344.7674
41.4300 1410.6306
41.4400 1494.7728
41.4500 1537.5390
41.4600 1532.4836
41.4700 1457.4766
41.4800 1276.3846
41.4900 1171.2698
41.5000 1211.6148
41.5100 1279.5882
41.5200 1384.9458
41.5300 1449.9682
41.5400 1269.8280
41.5500 1183.0780
41.5600 1259.9544
41.5700 1560.3418
41.5800 1540.1384
41.5900 1440.7578
41.6000 1405.3784
41.6100 1568.2168
41.6200 1514.2200
41.6300 1285.6730
41.6400 1335.3118
41.6500 1328.1634
41.6600 1297.8906
41.6700 1307.6882
41.6800 1296.7296
41.6900 1291.6196
41.7000 1302.2506
41.7100 1263.4722
41.7200 1289.6540
41.7300 1345.0012
41.7400 1201.3854
41.7500 1277.7726
41.7600 1430.9886
41.7700 1380.3850
41.7800 1135.2246
41.7900 955.0200
41.8000 1006.8280
41.8100 1039.6298
41.8200 1229.8960
41.8300 1519.4848
41.8400 1401.3726
41.8500 1181.0512
41.8600 1037.6150
41.8700 1213.6634
41.8800 1167.5482
41.8900 1108.2356
41.9000 1211.6938
41.9100 1241.0194
41.9200 1231.0598
41.9300 1207.0732
41.9400 1232.3904
41.9500 1208.8732
41.9600 1208.2960
41.9700 1417.3258
41.9800 1394.3428
41.9900 1296.5742
42.0000 1267.9028
42.0100 1265.5990
42.0200 1259.1696
42.0300 1228.8790
42.0400 1141.3052
42.0500 1093.1784
42.0600 1066.4446
42.0700 980.0634
42.0800 1101.2218
42.0900 1279.3998
42.1000 1335.8684
42.1100 1269.0170
42.1200 1178.1338
42.1300 1121.8530
42.1400 1174.8672
42.1500 1231.4742
42.1600 1295.2736
42.1700 1445.1340
42.1800 1362.0686
42.1900 1244.2288
42.2000 1353.9160
42.2100 1186.6220
42.2200 1123.6096
42.2300 1342.5628
42.2400 1220.0620
42.2500 1195.2846
42.2600 1308.9116
42.2700 1297.3522
42.2800 1243.6046
42.2900 1158.2238
42.3000 1039.5234
42.3100 1110.5632
42.3200 1202.1552
42.3300 1196.9320
42.3400 1135.0958
42.3500 1171.0054
42.3600 1298.6316
42.3700 1287.7912
42.3800 1287.3602
42.3900 1268.0710
42.4000 1141.8280
42.4100 1221.6822
42.4200 1310.3552
42.4300 1249.1602
42.4400 1211.3704
42.4500 1162.5654
42.4600 1105.9842
42.4700 1125.9160
42.4800 1201.2428
42.4900 1284.9030
42.5000 1274.2248
42.5100 1155.4108
42.5200 1057.4712
42.5300 1101.4942
42.5400 1140.6730
42.5500 1123.1048
42.5600 1057.3282
42.5700 1134.5092
42.5800 1187.3266
42.5900 1194.0246
42.6000 1174.9764
42.6100 1232.6460
42.6200 1275.1422
42.6300 1204.0796
42.6400 1287.5418
42.6500 1328.1136
42.6600 1244.6058
42.6700 1210.8146
42.6800 1190.3968
42.6900 1175.5670
42.7000 1182.0678
42.7100 1218.4280
42.7200 1254.9818
42.7300 1258.9216
42.7400 1333.0900
42.7500 1311.6938
42.7600 1125.8612
42.7700 1152.1406
42.7800 1277.3536
42.7900 1410.5950
42.8000 1345.1668
42.8100 1236.6002
42.8200 1154.1428
42.8300 1174.9618
42.8400 1278.5470
42.8500 1275.2750
42.8600 1083.0598
42.8700 1185.1812
42.8800 1265.3036
42.8900 1259.4706
42.9000 1312.2352
42.9100 1281.6530
42.9200 1232.7458
42.9300 1308.9282
42.9400 1397.0650
42.9500 1396.9042
42.9600 1251.7702
42.9700 1377.6010
42.9800 1413.2658
42.9900 1316.2570
43.0000 1538.9342
43.0100 1617.9514
43.0200 1617.0224
43.0300 1793.8524
43.0400 1666.9330
43.0500 1498.6008
43.0600 1536.7666
43.0700 1511.0226
43.0800 1505.3108
43.0900 1555.4346
43.1000 1626.2074
43.1100 1685.8362
43.1200 1702.9884
43.1300 1609.2526
43.1400 1617.2188
43.1500 1601.0738
43.1600 1429.6078
43.1700 1605.8484
43.1800 1767.8018
43.1900 1761.0248
43.2000 1823.2906
43.2100 1716.0184
43.2200 1516.4106
43.2300 1587.2884
43.2400 1755.8572
43.2500 1903.3044
43.2600 1909.5924
43.2700 2001.4112
43.2800 2071.5038
43.2900 2057.8826
43.3000 2049.5464
43.3100 2108.2144
43.3200 2189.0126
43.3300 2090.1388
43.3400 2197.4724
43.3500 2377.4048
43.3600 2487.1822
43.3700 2598.0766
43.3800 2774.9636
43.3900 3066.3038
43.4000 3507.5126
43.4100 3830.3944
43.4200 3975.8650
43.4300 4050.5966
43.4400 4110.3162
43.4500 4061.4868
43.4600 3704.1562
43.4700 3565.5894
43.4800 3442.0618
43.4900 3179.0758
43.5000 3095.7952
43.5100 2996.5210
43.5200 2846.8794
43.5300 2999.7314
43.5400 3076.2210
43.5500 3013.2856
43.5600 2706.7526
43.5700 2492.3202
43.5800 2405.1996
43.5900 2456.3428
43.6000 2230.9076
43.6100 2033.6494
43.6200 1952.5834
43.6300 1729.3918
43.6400 1656.5588
43.6500 1716.1094
43.6600 1757.9230
43.6700 1685.9364
43.6800 1637.7770
43.6900 1762.4820
43.7000 1532.9048
43.7100 1377.2134
43.7200 1432.1148
43.7300 1387.2946
43.7400 1387.9038
43.7500 1403.9376
43.7600 1259.1008
43.7700 1154.1764
43.7800 1108.3774
43.7900 1139.1108
43.8000 1230.7676
43.8100 1304.9972
43.8200 1313.8866
43.8300 1268.0150
43.8400 1276.9216
43.8500 1340.2038
43.8600 1364.2258
43.8700 1243.7988
43.8800 1142.8472
43.8900 1299.4050
43.9000 1310.3726
43.9100 1220.0458
43.9200 1083.5086
43.9300 1177.7500
43.9400 1228.5780
43.9500 1176.4362
43.9600 1124.3360
43.9700 1160.9650
43.9800 1199.8666
43.9900 1079.7050
44.0000 1086.2336
44.0100 1117.8320
44.0200 1100.5322
44.0300 1173.1544
44.0400 1187.1710
44.0500 1127.4654
44.0600 1190.2140
44.0700 1250.9918
44.0800 1259.5106
44.0900 1145.7110
44.1000 1111.5574
44.1100 1080.1700
44.1200 993.9198
44.1300 1150.8378
44.1400 1204.6176
44.1500 1072.4630
44.1600 1163.9852
44.1700 1199.3614
44.1800 1197.7702
44.1900 1324.5678
44.2000 1370.8764
44.2100 1372.0208
44.2200 1271.0790
44.2300 1312.7578
44.2400 1327.2016
44.2500 1253.1110
44.2600 1196.9438
44.2700 1222.5846
44.2800 1299.2342
44.2900 1308.4084
44.3000 1216.3460
44.3100 1089.2340
44.3200 1018.6708
44.3300 1234.1662
44.3400 1350.5662
44.3500 1200.5812
44.3600 1349.2478
44.3700 1401.7402
44.3800 1319.8296
44.3900 1311.4956
44.4000 1223.1024
44.4100 1175.2882
44.4200 1369.6376
44.4300 1385.9102
44.4400 1375.3040
44.4500 1426.2482
44.4600 1358.6886
44.4700 1369.4662
44.4800 1467.3012
44.4900 1443.2950
44.5000 1319.6278
44.5100 1194.7790
44.5200 1222.7550
44.5300 1174.9052
44.5400 1159.7864
44.5500 1263.9522
44.5600 1326.3942
44.5700 1275.0784
44.5800 1166.5128
44.5900 1363.0628
44.6000 1347.1000
44.6100 1193.0554
44.6200 1184.4514
44.6300 1259.3444
44.6400 1319.4718
44.6500 1299.0084
44.6600 1454.3778
44.6700 1511.8792
44.6800 1383.0116
44.6900 1280.7446
44.7000 1251.3386
44.7100 1257.4696
44.7200 1202.1722
44.7300 1199.6510
44.7400 1219.6644
44.7500 1228.2156
44.7600 1223.7744
44.7700 1230.5840
44.7800 1262.5916
44.7900 1319.3664
44.8000 1387.4604
44.8100 1446.4108
44.8200 1443.6130
44.8300 1342.8204
44.8400 1223.9746
44.8500 1181.6784
44.8600 1154.9076
44.8700 1173.8378
44.8800 1246.4730
44.8900 1230.5942
44.9000 1239.6898
44.9100 1251.8192
44.9200 1100.0216
44.9300 1096.6626
44.9400 1172.8130
44.9500 1196.6838
44.9600 1146.3106
44.9700 1089.5896
44.9800 1086.7386
44.9900 1252.6274
45.0000 1269.9704
45.0100 1122.9854
45.0200 1131.2718
45.0300 1094.6128
45.0400 1088.1980
45.0500 1286.0066
45.0600 1259.0156
45.0700 1127.3286
45.0800 985.9686
45.0900 919.1446
45.1000 1007.5266
45.1100 1220.8928
45.1200 1249.2472
45.1300 1151.5298
45.1400 1050.0306
45.1500 1161.8982
45.1600 1276.0096
45.1700 1357.1604
45.1800 1368.6024
45.1900 1219.7138
45.2000 1136.5104
45.2100 1199.4626
45.2200 1293.9040
45.2300 1301.2996
45.2400 1250.6412
45.2500 1260.3150
45.2600 1302.3230
45.2700 1345.0360
45.2800 1361.7662
45.2900 1436.2260
45.3000 1471.1580
45.3100 1428.4324
45.3200 1410.2282
45.3300 1288.5008
45.3400 1151.3880
45.3500 1315.4726
45.3600 1399.4012
45.3700 1385.2420
45.3800 1278.4938
45.3900 1254.8714
45.4000 1304.2218
45.4100 1410.3880
45.4200 1491.0132
45.4300 1531.0474
45.4400 1534.8608
45.4500 1486.4630
45.4600 1406.6184
45.4700 1323.6382
45.4800 1276.0994
45.4900 1303.1798
45.5000 1313.3186
45.5100 1257.7584
45.5200 1274.3446
45.5300 1323.9872
45.5400 1374.2998
45.5500 1343.5886
45.5600 1236.2736
45.5700 1137.8454
45.5800 1188.2710
45.5900 1172.0840
45.6000 1217.2558
45.6100 1389.2888
45.6200 1174.3126
45.6300 1074.4696
45.6400 1194.4232
45.6500 1172.6936
45.6600 1169.7944
45.6700 1188.9236
45.6800 1186.8112
45.6900 1114.2070
45.7000 1076.0642
45.7100 1162.3296
45.7200 1158.2478
45.7300 1188.6602
45.7400 1275.9970
45.7500 1242.3926
45.7600 1196.5480
45.7700 1199.1312
45.7800 1345.6358
45.7900 1258.1612
45.8000 1110.4072
45.8100 1105.0390
45.8200 1256.5074
45.8300 1280.0240
45.8400 1100.1818
45.8500 1197.2054
45.8600 1251.3858
45.8700 1251.5180
45.8800 1347.7244
45.8900 1288.7154
45.9000 1231.4226
45.9100 1379.3292
45.9200 1351.4732
45.9300 1292.6840
45.9400 1288.5310
45.9500 1340.7972
45.9600 1331.0138
45.9700 1257.5974
45.9800 1207.5764
45.9900 1225.7268
46.0000 1253.2670
46.0100 1204.7478
46.0200 1155.8040
46.0300 1111.3574
46.0400 1086.8298
46.0500 1184.2824
46.0600 1201.4774
46.0700 1091.6578
46.0800 912.4820
46.0900 936.2744
46.1000 1055.7586
46.1100 1176.8480
46.1200 1115.6786
46.1300 1039.2064
46.1400 1051.2326
46.1500 1086.1490
46.1600 1095.4430
46.1700 1074.9944
46.1800 1085.3888
46.1900 1099.3742
46.2000 1101.0092
46.2100 1064.4940
46.2200 1023.8286
46.2300 990.5850
46.2400 972.8888
46.2500 947.3460
46.2600 939.6498
46.2700 955.3342
46.2800 1047.1276
46.2900 927.7490
46.3000 738.9754
46.3100 869.5268
46.3200 1023.2922
46.3300 1119.2608
46.3400 1092.1546
46.3500 1077.5446
46.3600 1086.1264
46.3700 1131.5536
46.3800 1252.0458
46.3900 1201.5708
46.4000 1044.8140
46.4100 1078.6052
46.4200 1055.9506
46.4300 992.1784
46.4400 927.7496
46.4500 957.6448
46.4600 1047.0626
46.4700 1168.5316
46.4800 1148.0014
46.4900 1044.8988
46.5000 939.0386
46.5100 1035.8744
46.5200 1037.1454
46.5300 992.9386
46.5400 1005.6582
46.5500 961.5980
46.5600 966.7450
46.5700 1075.4848
46.5800 1046.8012
46.5900 971.4270
46.6000 926.8814
46.6100 1105.1054
46.6200 1103.6054
46.6300 994.1874
46.6400 955.9664
46.6500 1145.2546
46.6600 1253.2036
46.6700 1056.6626
46.6800 958.5370
46.6900 921.4248
46.7000 931.6608
46.7100 979.3962
46.7200 1019.6554
46.7300 1064.8810
46.7400 1150.9264
46.7500 1137.6734
46.7600 1035.0440
46.7700 860.7774
46.7800 904.8752
46.7900 952.5202
46.8000 940.0606
46.8100 993.9048
46.8200 1025.9962
46.8300 1026.9882
46.8400 1007.5364
46.8500 1057.3288
46.8600 1035.2842
46.8700 803.4816
46.8800 887.5188
46.8900 1035.1654
46.9000 1121.5156
46.9100 1107.5806
46.9200 1100.3310
46.9300 1099.6616
46.9400 1045.2392
46.9500 1052.3890
46.9600 1082.5060
46.9700 1081.4258
46.9800 1081.0198
46.9900 1075.0526
47.0000 1058.9256
47.0100 1036.5648
47.0200 1099.1266
47.0300 1211.7178
47.0400 1193.7622
47.0500 1041.0174
47.0600 906.4126
47.0700 996.1250
47.0800 979.4340
47.0900 988.6456
47.1000 1094.0864
47.1100 1039.5388
47.1200 1037.3810
47.1300 1112.2276
47.1400 993.1284
47.1500 1008.7358
47.1600 1080.4998
47.1700 1067.7778
47.1800 1029.7182
47.1900 1006.6686
47.2000 1016.0048
47.2100 933.6010
47.2200 850.9216
47.2300 822.6236
47.2400 945.2316
47.2500 1023.2858
47.2600 1050.9564
47.2700 1060.4338
47.2800 1009.1204
47.2900 954.2318
47.3000 944.6454
47.3100 1063.4370
47.3200 1088.9974
47.3300 982.3264
47.3400 934.9536
47.3500 921.5058
47.3600 938.5984
47.3700 1000.1066
47.3800 1093.5980
47.3900 1104.5214
47.4000 924.4330
47.4100 1011.1202
47.4200 1090.1358
47.4300 1058.1946
47.4400 1109.1970
47.4500 1141.0966
47.4600 1121.9960
47.4700 1017.0844
47.4800 997.1106
47.4900 1031.6132
47.5000 1072.0368
47.5100 948.1606
47.5200 857.2182
47.5300 914.7046
47.5400 1088.7936
47.5500 1126.2518
47.5600 1038.1770
47.5700 1041.4076
47.5800 1002.2692
47.5900 967.2566
47.6000 1020.1370
47.6100 1030.2970
47.6200 1026.8412
47.6300 1025.5208
47.6400 995.8244
47.6500 1010.6918
47.6600 1056.6550
47.6700 1003.6884
47.6800 956.2136
47.6900 974.8520
47.7000 1140.5104
47.7100 1048.0646
47.7200 922.7608
47.7300 925.8846
47.7400 894.4876
47.7500 987.2328
47.7600 1183.3906
47.7700 1128.6420
47.7800 1055.8522
47.7900 1003.8198
47.8000 976.3268
47.8100 896.1986
47.8200 855.6718
47.8300 942.6516
47.8400 1034.3682
47.8500 1054.1924
47.8600 999.6448
47.8700 1039.4928
47.8800 1054.2276
47.8900 1026.2264
47.9000 955.5668
47.9100 918.0442
47.9200 957.6724
47.9300 1119.4364
47.9400 1156.1680
47.9500 1090.2244
47.9600 954.7080
47.9700 946.7108
47.9800 1018.4126
47.9900 1114.5014
48.0000 1089.3356
48.0100 1031.5074
48.0200 977.8094
48.0300 970.9628
48.0400 1004.7426
48.0500 1041.6886
48.0600 1084.3476
48.0700 1270.8680
48.0800 1231.8484
48.0900 1033.7288
48.1000 1146.4610
48.1100 1101.6134
48.1200 1041.4958
48.1300 1214.8138
48.1400 1164.2420
48.1500 1087.3164
48.1600 1104.9968
48.1700 1156.4600
48.1800 1162.0632
48.1900 1143.3424
48.2000 1229.3272
48.2100 1195.9210
48.2200 1086.6798
48.2300 1006.0616
48.2400 1141.1786
48.2500 1215.8354
48.2600 1046.1808
48.2700 1053.0444
48.2800 1080.2408
48.2900 1098.8684
48.3000 1211.6992
48.3100 1196.2472
48.3200 1104.8036
48.3300 1078.2890
48.3400 1014.5710
48.3500 1005.2852
48.3600 1127.4418
48.3700 1191.1252
48.3800 1194.6374
48.3900 1153.3524
48.4000 1167.2528
48.4100 1127.2620
48.4200 1060.0026
48.4300 1057.1726
48.4400 937.0788
48.4500 849.6296
48.4600 950.9866
48.4700 942.8558
48.4800 935.8134
48.4900 978.8006
48.5000 1031.1774
48.5100 1014.6982
48.5200 976.7724
48.5300 1075.6852
48.5400 1071.0128
48.5500 1016.5696
48.5600 987.8366
48.5700 980.1578
48.5800 934.1772
48.5900 847.4042
48.6000 954.7946
48.6100 1060.3936
48.6200 1095.8710
48.6300 991.8134
48.6400 975.4244
48.6500 1014.2938
48.6600 1050.1196
48.6700 1148.0116
48.6800 1148.7496
48.6900 975.7182
48.7000 1001.2034
48.7100 1017.9516
48.7200 1000.4310
48.7300 1071.6942
48.7400 1079.7682
48.7500 1028.2110
48.7600 945.4242
48.7700 1037.9052
48.7800 1106.2704
48.7900 1011.6506
48.8000 974.3656
48.8100 1016.9326
48.8200 1090.3766
48.8300 946.0030
48.8400 928.3878
48.8500 997.1088
48.8600 1033.4844
48.8700 1137.9184
48.8800 1154.7050
48.8900 952.9082
48.9000 978.0124
48.9100 1069.8234
48.9200 1144.1632
48.9300 1084.6018
48.9400 1044.0242
48.9500 1037.1478
48.9600 1044.2248
48.9700 1076.6334
48.9800 1096.1350
48.9900 1067.5926
49.0000 1095.8888
49.0100 1102.5524
49.0200 1061.5414
49.0300 979.9226
49.0400 1000.6166
49.0500 1108.8956
49.0600 1240.4450
49.0700 1107.6148
49.0800 942.2972
49.0900 1024.7866
49.1000 1117.0832
49.1100 1120.5108
49.1200 1008.5850
49.1300 1026.5796
49.1400 1101.5118
49.1500 1202.1512
49.1600 1288.2022
49.1700 1172.2038
49.1800 1004.8682
49.1900 996.3480
49.2000 946.6312
49.2100 951.8700
49.2200 1054.5222
49.2300 1038.7108
49.2400 1047.6508
49.2500 1089.2750
49.2600 1045.3838
49.2700 1049.2886
49.2800 1086.2888
49.2900 1111.3816
49.3000 1056.6926
49.3100 999.9312
49.3200 991.0682
49.3300 949.1442
49.3400 935.2866
49.3500 966.9242
49.3600 1023.7910
49.3700 1092.4360
49.3800 1089.0874
49.3900 857.0476
49.4000 919.0700
49.4100 1024.4180
49.4200 958.9340
49.4300 934.3950
49.4400 936.1270
49.4500 959.0770
49.4600 1003.1050
49.4700 1062.3586
49.4800 1096.5050
49.4900 1012.4012
49.5000 902.0776
49.5100 859.3452
49.5200 970.2094
49.5300 962.3360
49.5400 936.2056
49.5500 938.9818
49.5600 970.8112
49.5700 1019.1322
49.5800 1059.8706
49.5900 1037.0442
49.6000 1036.6126
49.6100 1074.4952
49.6200 1161.5582
49.6300 1142.2726
49.6400 1103.6676
49.6500 1070.6190
49.6600 913.8972
49.6700 904.6422
49.6800 1019.8132
49.6900 1008.0518
49.7000 1010.3430
49.7100 1023.4814
49.7200 967.2552
49.7300 1004.1838
49.7400 1008.2052
49.7500 921.2330
49.7600 918.4112
49.7700 945.4796
49.7800 988.6664
49.7900 1052.8004
49.8000 1049.0726
49.8100 1018.1324
49.8200 1030.0966
49.8300 1006.2032
49.8400 1027.1384
49.8500 1121.8976
49.8600 910.4878
49.8700 820.0310
49.8800 927.4898
49.8900 875.0630
49.9000 943.5712
49.9100 1043.7804
49.9200 969.9376
49.9300 941.1650
49.9400 996.3550
49.9500 1155.4936
49.9600 1167.4046
49.9700 1056.1508
49.9800 896.4898
49.9900 1045.7836
50.0000 1133.4060
50.0100 1113.2790
50.0200 1004.7388
50.0300 990.8136
50.0400 987.8714
50.0500 911.9052
50.0600 828.2502
50.0700 853.2172
50.0800 1011.9662
50.0900 1136.9478
50.1000 1156.5036
50.1100 1128.9686
50.1200 1226.4606
50.1300 1266.3668
50.1400 1252.5808
50.1500 1198.5066
50.1600 1197.6310
50.1700 1202.6258
50.1800 1196.1958
50.1900 1231.1520
50.2000 1199.6622
50.2100 1118.9014
50.2200 1111.4884
50.2300 1027.4436
50.2400 982.5488
50.2500 1140.1808
50.2600 1116.3102
50.2700 1131.9516
50.2800 1297.7542
50.2900 1270.2756
50.3000 1316.4460
50.3100 1464.6198
50.3200 1550.1120
50.3300 1529.0084
50.3400 1441.9746
50.3500 1342.9864
50.3600 1351.2184
50.3700 1411.0706
50.3800 1488.3022
50.3900 1553.0102
50.4000 1614.0650
50.4100 1682.9206
50.4200 1793.8786
50.4300 1815.0656
50.4400 1783.5876
50.4500 1786.0666
50.4600 1786.4570
50.4700 1824.0612
50.4800 1926.0516
50.4900 1898.1642
50.5000 1930.1354
50.5100 2078.2914
50.5200 2230.7070
50.5300 2402.7850
50.5400 2541.9718
50.5500 2521.1746
50.5600 2514.7500
50.5700 2489.2450
50.5800 2410.1778
50.5900 2507.6284
50.6000 2680.1898
50.6100 2847.8350
50.6200 2783.0754
50.6300 2697.7896
50.6400 2635.5476
50.6500 2598.5440
50.6600 2538.0048
50.6700 2497.0082
50.6800 2531.1888
50.6900 2541.1684
50.7000 2612.2256
50.7100 2772.8708
50.7200 2834.7254
50.7300 2674.1896
50.7400 2393.4130
50.7500 2463.1696
50.7600 2441.8668
50.7700 2342.5070
50.7800 2208.1728
50.7900 2250.5524
50.8000 2252.5600
50.8100 2112.7864
50.8200 2171.0600
50.8300 2169.8654
50.8400 2061.3688
50.8500 1926.7758
50.8600 1864.2130
50.8700 1824.6230
50.8800 1722.3182
50.8900 1631.8690
50.9000 1579.4816
50.9100 1584.1768
50.9200 1560.3018
50.9300 1460.4830
50.9400 1311.4714
50.9500 1315.9726
50.9600 1324.0278
50.9700 1317.6982
50.9800 1304.9622
50.9900 1329.2576
51.0000 1335.3848
51.0100 1276.5922
51.0200 1231.2228
51.0300 1192.1374
51.0400 1168.3438
51.0500 1213.9790
51.0600 1185.4200
51.0700 1137.9502
51.0800 1234.6702
51.0900 1133.2606
51.1000 1054.9748
51.1100 1196.8064
51.1200 1150.5776
51.1300 1125.6848
51.1400 1190.8330
51.1500 1169.4184
51.1600 1213.7836
51.1700 1235.7456
51.1800 939.4128
51.1900 959.1404
51.2000 1092.5112
51.2100 1085.3884
51.2200 1059.4676
51.2300 1036.5672
51.2400 1033.9264
51.2500 1099.6916
51.2600 1139.9006
51.2700 1138.5490
51.2800 1106.9470
51.2900 1054.0552
51.3000 1016.6432
51.3100 1040.8300
51.3200 1008.3400
51.3300 954.2148
51.3400 920.9456
51.3500 1063.8906
51.3600 1116.1460
51.3700 1066.0856
51.3800 1123.3332
51.3900 1079.7326
51.4000 1006.0952
51.4100 1036.7254
51.4200 996.2214
51.4300 982.4704
51.4400 1069.6558
51.4500 1166.4688
51.4600 1127.2628
51.4700 979.3336
51.4800 1042.2478
51.4900 1032.3226
51.5000 989.4636
51.5100 1049.9562
51.5200 1055.0796
51.5300 998.0478
51.5400 895.7148
51.5500 1048.5086
51.5600 1131.1378
51.5700 1044.4992
51.5800 937.2200
51.5900 909.8736
51.6000 935.6512
51.6100 949.8672
51.6200 934.3800
51.6300 960.4374
51.6400 1100.0358
51.6500 1234.6612
51.6600 1215.3438
51.6700 1019.8956
51.6800 987.7744
51.6900 1027.7098
51.7000 1061.9626
51.7100 947.6840
51.7200 928.0484
51.7300 999.3696
51.7400 1138.8024
51.7500 1031.6424
51.7600 1015.1468
51.7700 1221.9580
51.7800 1051.1708
51.7900 965.7854
51.8000 1007.6484
51.8100 1113.2386
51.8200 1196.6690
51.8300 1191.5164
51.8400 1003.9200
51.8500 882.0230
51.8600 904.1272
51.8700 1076.0424
51.8800 925.5566
51.8900 889.5806
51.9000 985.2220
51.9100 866.0540
51.9200 881.4628
51.9300 954.5540
51.9400 921.4842
51.9500 971.3594
51.9600 985.8810
51.9700 904.7822
51.9800 975.8118
51.9900 1002.4406
52.0000 951.2716
52.0100 948.3334
52.0200 884.3536
52.0300 869.0484
52.0400 1129.3594
52.0500 1152.7198
52.0600 1100.9088
52.0700 1099.2244
52.0800 1007.2490
52.0900 969.2564
52.1000 1008.9952
52.1100 961.3112
52.1200 962.6080
52.1300 987.7900
52.1400 946.2834
52.1500 989.2442
52.1600 991.8642
52.1700 830.6944
52.1800 765.9010
52.1900 833.6262
52.2000 998.7050
52.2100 914.3254
52.2200 922.6062
52.2300 1026.1146
52.2400 1082.0556
52.2500 1084.1458
52.2600 1021.3108
52.2700 882.6974
52.2800 991.5004
52.2900 1096.5958
52.3000 1094.7424
52.3100 1180.6218
52.3200 1177.6708
52.3300 1083.0582
52.3400 996.7456
52.3500 1076.4612
52.3600 1183.2332
52.3700 1126.5364
52.3800 1000.3576
52.3900 882.7780
52.4000 835.4860
52.4100 964.4758
52.4200 1075.5532
52.4300 1111.7656
52.4400 1053.2588
52.4500 1094.9874
52.4600 1175.8214
52.4700 978.4938
52.4800 1055.9606
52.4900 1121.2520
52.5000 1027.9050
52.5100 1128.6920
52.5200 1179.9154
52.5300 1130.9744
52.5400 1098.5914
52.5500 1122.8394
52.5600 1159.9442
52.5700 1129.1676
52.5800 1125.0980
52.5900 1122.1988
52.6000 1096.9552
52.6100 1075.1340
52.6200 1075.4118
52.6300 1097.4812
52.6400 1096.5400
52.6500 1061.8988
52.6600 1035.1560
52.6700 1113.1722
52.6800 1299.3344
52.6900 1407.4866
52.7000 1266.7526
52.7100 1252.0536
52.7200 1245.4744
52.7300 1223.5198
52.7400 1348.7594
52.7500 1408.5106
52.7600 1376.9116
52.7700 1276.7222
52.7800 1327.9596
52.7900 1407.1006
52.8000 1372.9218
52.8100 1403.1834
52.8200 1433.8894
52.8300 1439.1324
52.8400 1436.4804
52.8500 1374.3198
52.8600 1309.9756
52.8700 1436.2332
52.8800 1275.8818
52.8900 1095.0434
52.9000 1270.8220
52.9100 1276.0282
52.9200 1298.6172
52.9300 1428.5796
52.9400 1382.3956
52.9500 1263.9644
52.9600 1163.6934
52.9700 1295.2866
52.9800 1286.3134
52.9900 1234.4868
53.0000 1320.0982
53.0100 1162.9124
53.0200 1031.4730
53.0300 1096.3542
53.0400 1047.8140
53.0500 1072.0416
53.0600 1178.4344
53.0700 1159.4456
53.0800 1168.6826
53.0900 1191.2774
53.1000 1163.5024
53.1100 1101.0958
53.1200 1058.8520
53.1300 1079.9000
53.1400 1101.2594
53.1500 1026.5412
53.1600 864.5626
53.1700 850.8316
53.1800 934.2204
53.1900 1062.5102
53.2000 1157.5898
53.2100 1099.4510
53.2200 988.1906
53.2300 919.4168
53.2400 994.0036
53.2500 1033.5338
53.2600 1002.6250
53.2700 1143.4920
53.2800 1162.9212
53.2900 1069.8954
53.3000 1000.4278
53.3100 993.6658
53.3200 1009.8022
53.3300 1139.7372
53.3400 1235.2894
53.3500 1293.9352
53.3600 1275.3692
53.3700 1075.5286
53.3800 1021.4432
53.3900 1100.5052
53.4000 1087.8148
53.4100 1126.7520
53.4200 1173.2756
53.4300 1159.1814
53.4400 1195.4978
53.4500 1189.9892
53.4600 1106.3862
53.4700 1155.0394
53.4800 1178.7312
53.4900 1156.1038
53.5000 1239.9902
53.5100 1067.1008
53.5200 877.2748
53.5300 1042.3546
53.5400 1055.6916
53.5500 1059.5264
53.5600 1140.5314
53.5700 1066.0290
53.5800 1022.1876
53.5900 1028.9894
53.6000 933.9880
53.6100 952.9374
53.6200 1017.2688
53.6300 972.2364
53.6400 989.2542
53.6500 990.8984
53.6600 915.0860
53.6700 950.8800
53.6800 1035.0818
53.6900 1102.7908
53.7000 912.5090
53.7100 942.8634
53.7200 1097.0980
53.7300 1050.1068
53.7400 990.1810
53.7500 911.1800
53.7600 809.3304
53.7700 933.1504
53.7800 1002.6446
53.7900 928.9386
53.8000 920.9136
53.8100 928.4594
53.8200 959.9472
53.8300 1064.4414
53.8400 1143.3780
53.8500 1113.2100
53.8600 901.2672
53.8700 1039.8996
53.8800 1115.9540
53.8900 963.9006
53.9000 951.1588
53.9100 962.2822
53.9200 988.4504
53.9300 1079.9674
53.9400 986.9726
53.9500 879.6456
53.9600 988.0400
53.9700 1021.0770
53.9800 1064.5550
53.9900 1154.4836
54.0000 1123.4864
54.0100 1018.9248
54.0200 888.3746
54.0300 849.8004
54.0400 939.4532
54.0500 1055.1028
54.0600 1050.3768
54.0700 990.3120
54.0800 974.0856
54.0900 1047.1720
54.1000 966.4076
54.1100 902.8970
54.1200 904.2458
54.1300 947.0826
54.1400 972.6404
54.1500 990.0568
54.1600 1024.9350
54.1700 1012.0408
54.1800 1001.2122
54.1900 1019.3918
54.2000 914.6410
54.2100 856.7358
54.2200 888.5316
54.2300 907.3400
54.2400 961.1466
54.2500 985.6044
54.2600 830.8910
54.2700 793.4434
54.2800 840.5530
54.2900 941.2750
54.3000 1025.8584
54.3100 993.1698
54.3200 848.1350
54.3300 907.9794
54.3400 931.3252
54.3500 905.8700
54.3600 927.7404
54.3700 979.9044
54.3800 962.7902
54.3900 777.7972
54.4000 908.3818
54.4100 971.7718
54.4200 830.1088
54.4300 908.0876
54.4400 972.3424
54.4500 972.0544
54.4600 903.7000
54.4700 883.2978
54.4800 892.0120
54.4900 899.1304
54.5000 886.6590
54.5100 930.6338
54.5200 1059.8040
54.5300 1014.9374
54.5400 987.7664
54.5500 1007.1894
54.5600 1044.4068
54.5700 897.3420
54.5800 722.8322
54.5900 775.7026
54.6000 920.5310
54.6100 1009.2138
54.6200 954.0332
54.6300 928.2034
54.6400 926.6074
54.6500 952.9542
54.6600 1027.6546
54.6700 1067.9028
54.6800 1049.2804
54.6900 935.9852
54.7000 944.3652
54.7100 1006.7344
54.7200 1067.1082
54.7300 1000.8644
54.7400 924.3414
54.7500 876.2260
54.7600 845.2666
54.7700 871.1128
54.7800 923.2678
54.7900 943.2958
54.8000 1135.6338
54.8100 1247.8082
54.8200 1048.3340
54.8300 1014.4714
54.8400 1031.6094
54.8500 1052.7828
54.8600 1078.9312
54.8700 1043.7274
54.8800 1019.0096
54.8900 1195.6038
54.9000 1082.3658
54.9100 900.1248
54.9200 912.4044
54.9300 1094.7572
54.9400 1208.9164
54.9500 1167.6076
54.9600 1209.3046
54.9700 1155.5240
54.9800 1004.4984
54.9900 850.5290
55.0000 958.3658
55.0100 1125.5652
55.0200 1092.9762
55.0300 1020.0242
55.0400 1052.2884
55.0500 1234.8098
55.0600 1184.4430
55.0700 1084.7588
55.0800 1045.2424
55.0900 1270.4126
55.1000 1280.1288
55.1100 1163.5246
55.1200 1093.9916
55.1300 1060.5384
55.1400 1051.5840
55.1500 1076.9052
55.1600 1212.9066
55.1700 1212.8560
55.1800 1075.0008
55.1900 1090.2496
55.2000 1029.1686
55.2100 935.8096
55.2200 880.1926
55.2300 906.3976
55.2400 881.3332
55.2500 723.1384
55.2600 704.2356
55.2700 837.7438
55.2800 1060.0568
55.2900 1026.9126
55.3000 913.7446
55.3100 813.5016
55.3200 854.9038
55.3300 973.0070
55.3400 1038.6994
55.3500 942.8458
55.3600 916.4088
55.3700 936.4064
55.3800 983.1470
55.3900 1034.2330
55.4000 1098.0108
55.4100 1116.5360
55.4200 924.8338
55.4300 943.2408
55.4400 1031.5680
55.4500 1031.9564
55.4600 1066.5512
55.4700 1122.6950
55.4800 1173.5364
55.4900 1092.8708
55.5000 1044.0804
55.5100 1037.2290
55.5200 1008.5878
55.5300 1025.5592
55.5400 1030.8610
55.5500 948.9434
55.5600 1012.1276
55.5700 1028.7420
55.5800 937.8110
55.5900 1064.7274
55.6000 1167.2736
55.6100 1165.4360
55.6200 996.2342
55.6300 1044.2214
55.6400 1156.0766
55.6500 1071.1838
55.6600 992.7974
55.6700 966.7390
55.6800 1029.6418
55.6900 1178.6656
55.7000 1260.2796
55.7100 1225.4138
55.7200 1066.8436
55.7300 1066.0888
55.7400 1134.4180
55.7500 1091.3004
55.7600 1150.4974
55.7700 1202.6102
55.7800 1145.8828
55.7900 962.1008
55.8000 891.4466
55.8100 971.4416
55.8200 962.3256
55.8300 956.8598
55.8400 942.9272
55.8500 867.7546
55.8600 910.2658
55.8700 973.1626
55.8800 966.8728
55.8900 947.5480
55.9000 951.0912
55.9100 979.1178
55.9200 955.4116
55.9300 900.2870
55.9400 841.2918
55.9500 835.8098
55.9600 976.4724
55.9700 1117.6480
55.9800 1104.0920
55.9900 1044.2066
56.0000 985.0242
56.0100 953.4284
56.0200 984.0850
56.0300 1051.8736
56.0400 1101.5858
56.0500 996.7074
56.0600 992.6992
56.0700 1033.8690
56.0800 1242.4604
56.0900 1129.0140
56.1000 987.3786
56.1100 949.5476
56.1200 960.7266
56.1300 961.9114
56.1400 949.9084
56.1500 961.8510
56.1600 1027.8476
56.1700 1062.6674
56.1800 936.1590
56.1900 851.3116
56.2000 834.9374
56.2100 892.4298
56.2200 852.7614
56.2300 866.8498
56.2400 945.4902
56.2500 977.8384
56.2600 1013.6642
56.2700 1027.3848
56.2800 952.1846
56.2900 924.8038
56.3000 928.1576
56.3100 948.6418
56.3200 964.0890
56.3300 923.5812
56.3400 841.1380
56.3500 870.9174
56.3600 899.3898
56.3700 905.2848
56.3800 878.3760
56.3900 864.1410
56.4000 859.2500
56.4100 859.9340
56.4200 931.6260
56.4300 958.4794
56.4400 917.2426
56.4500 892.0654
56.4600 908.8672
56.4700 936.3554
56.4800 896.0240
56.4900 881.9554
56.5000 879.6526
56.5100 867.7732
56.5200 837.0098
56.5300 824.1522
56.5400 857.8220
56.5500 980.5072
56.5600 1035.0560
56.5700 999.9412
56.5800 892.9844
56.5900 907.1532
56.6000 956.2218
56.6100 934.7614
56.6200 934.6638
56.6300 928.0288
56.6400 910.7358
56.6500 981.6362
56.6600 993.1944
56.6700 942.6388
56.6800 934.1488
56.6900 906.0246
56.7000 895.2142
56.7100 970.0058
56.7200 1068.5886
56.7300 1069.4932
56.7400 919.5176
56.7500 990.1384
56.7600 997.4914
56.7700 920.9202
56.7800 1001.1108
56.7900 926.2452
56.8000 811.6344
56.8100 901.8866
56.8200 953.2028
56.8300 951.1184
56.8400 896.5024
56.8500 920.7156
56.8600 969.3874
56.8700 1018.8006
56.8800 1043.2798
56.8900 1046.2824
56.9000 1034.4010
56.9100 1015.8480
56.9200 1041.1990
56.9300 1064.8064
56.9400 1046.3774
56.9500 1034.9138
56.9600 1019.1142
56.9700 998.6916
56.9800 1000.0142
56.9900 994.3894
57.0000 969.2926
57.0100 905.5768
57.0200 911.2198
57.0300 946.0808
57.0400 964.9348
57.0500 929.8330
57.0600 972.0652
57.0700 1108.3166
57.0800 1006.1622
57.0900 958.5246
57.1000 986.3490
57.1100 871.4226
57.1200 971.3560
57.1300 1077.7632
57.1400 953.6896
57.1500 1009.5876
57.1600 1018.2488
57.1700 874.0990
57.1800 845.5748
57.1900 957.6476
57.2000 1108.0950
57.2100 960.8558
57.2200 990.4368
57.2300 1078.3612
57.2400 1002.8416
57.2500 947.5416
57.2600 924.4984
57.2700 937.0254
57.2800 1119.0868
57.2900 1164.8874
57.3000 1064.8542
57.3100 999.0346
57.3200 995.3744
57.3300 1038.5384
57.3400 1107.4246
57.3500 1053.3082
57.3600 1018.1414
57.3700 1097.8830
57.3800 1075.9834
57.3900 1040.7944
57.4000 1015.0862
57.4100 966.3690
57.4200 1022.5840
57.4300 1121.7002
57.4400 1120.2630
57.4500 1023.6620
57.4600 948.1774
57.4700 973.9502
57.4800 953.9684
57.4900 921.4870
57.5000 899.6078
57.5100 934.3700
57.5200 882.2214
57.5300 808.4698
57.5400 912.7380
57.5500 969.0020
57.5600 950.9260
57.5700 849.3332
57.5800 932.5576
57.5900 996.7798
57.6000 976.3334
57.6100 1081.9378
57.6200 1031.1262
57.6300 892.4686
57.6400 986.4292
57.6500 957.3724
57.6600 845.4972
57.6700 729.7794
57.6800 812.6806
57.6900 893.8984
57.7000 879.6008
57.7100 910.0374
57.7200 931.6676
57.7300 921.6368
57.7400 849.0984
57.7500 885.4192
57.7600 946.0476
57.7700 901.5516
57.7800 936.8620
57.7900 966.2112
57.8000 941.8904
57.8100 980.3502
57.8200 1024.2680
57.8300 1054.6562
57.8400 1062.8976
57.8500 1072.1208
57.8600 1051.0114
57.8700 945.0108
57.8800 1049.9600
57.8900 1090.6482
57.9000 887.4090
57.9100 966.7464
57.9200 1022.3564
57.9300 980.8074
57.9400 989.1152
57.9500 910.4182
57.9600 799.6074
57.9700 852.4842
57.9800 987.5804
57.9900 1082.8614
58.0000 1027.0746
58.0100 978.4272
58.0200 968.4416
58.0300 1000.1700
58.0400 1014.3960
58.0500 985.9632
58.0600 964.2088
58.0700 1067.6664
58.0800 1074.6594
58.0900 1070.9114
58.1000 1141.5094
58.1100 1052.1956
58.1200 967.3040
58.1300 956.4670
58.1400 869.1792
58.1500 898.4578
58.1600 992.6310
58.1700 965.3912
58.1800 966.0382
58.1900 995.9960
58.2000 1043.9986
58.2100 1046.6306
58.2200 988.9558
58.2300 889.7488
58.2400 990.0190
58.2500 999.5980
58.2600 933.1068
58.2700 1049.5416
58.2800 1045.3734
58.2900 975.8352
58.3000 945.1572
58.3100 980.5552
58.3200 996.8888
58.3300 956.9930
58.3400 973.8402
58.3500 1032.0214
58.3600 1115.7070
58.3700 1181.3068
58.3800 1185.1412
58.3900 1120.6998
58.4000 972.6474
58.4100 985.9636
58.4200 1059.2676
58.4300 1098.9142
58.4400 910.7902
58.4500 839.0608
58.4600 931.7226
58.4700 871.2814
58.4800 916.8314
58.4900 1016.5984
58.5000 1018.2746
58.5100 1023.2242
58.5200 1014.0236
58.5300 966.5164
58.5400 910.9682
58.5500 889.3702
58.5600 915.8888
58.5700 961.7222
58.5800 989.9948
58.5900 1014.4964
58.6000 1076.4112
58.6100 1041.8664
58.6200 1024.9208
58.6300 1131.7442
58.6400 1030.0284
58.6500 993.6184
58.6600 1116.4804
58.6700 1130.2144
58.6800 1135.2662
58.6900 1129.0030
58.7000 1046.5726
58.7100 1044.4794
58.7200 1090.6744
58.7300 1133.5806
58.7400 1016.0938
58.7500 909.1704
58.7600 898.9646
58.7700 905.9186
58.7800 941.0942
58.7900 990.6244
58.8000 1004.7434
58.8100 1037.9014
58.8200 1071.7990
58.8300 1154.3828
58.8400 1118.6930
58.8500 1024.0584
58.8600 901.4122
58.8700 869.3724
58.8800 994.1448
58.8900 1202.8706
58.9000 1157.3402
58.9100 1196.2544
58.9200 1235.8446
58.9300 1074.6802
58.9400 1004.1494
58.9500 1052.5254
58.9600 1216.4016
58.9700 1119.1624
58.9800 1086.1182
58.9900 1180.8446
59.0000 1187.9258
59.0100 1247.3982
59.0200 1316.8036
59.0300 1282.5726
59.0400 1287.6840
59.0500 1278.0852
59.0600 1201.3192
59.0700 1147.0390
59.0800 1239.3606
59.0900 1451.5102
59.1000 1351.7992
59.1100 1323.0892
59.1200 1339.5020
59.1300 1205.1856
59.1400 1200.2074
59.1500 1243.9566
59.1600 1249.4070
59.1700 1204.6506
59.1800 1144.2104
59.1900 1071.2722
59.2000 976.9116
59.2100 1025.7092
59.2200 1145.0248
59.2300 1074.3382
59.2400 1031.0884
59.2500 1006.9236
59.2600 976.3612
59.2700 1002.2976
59.2800 1057.2138
59.2900 1126.3490
59.3000 1180.9412
59.3100 1104.7754
59.3200 964.4370
59.3300 1041.2670
59.3400 1022.7314
59.3500 956.5180
59.3600 943.0620
59.3700 1075.3698
59.3800 1141.8942
59.3900 1029.0366
59.4000 1020.0006
59.4100 980.6218
59.4200 911.7910
59.4300 957.5878
59.4400 1056.6794
59.4500 1097.2186
59.4600 909.4274
59.4700 884.3802
59.4800 952.8722
59.4900 1056.5846
59.5000 1062.5000
59.5100 1030.9706
59.5200 991.2352
59.5300 988.1956
59.5400 964.1772
59.5500 970.7732
59.5600 1122.6506
59.5700 1116.0208
59.5800 1038.7794
59.5900 973.2182
59.6000 1012.5648
59.6100 1056.2152
59.6200 1074.7574
59.6300 1115.1750
59.6400 1179.4902
59.6500 1218.5476
59.6600 1117.1816
59.6700 995.0396
59.6800 907.4960
59.6900 1112.0758
59.7000 1121.7124
59.7100 1106.5058
59.7200 1120.2904
59.7300 1157.8296
59.7400 1104.4302
59.7500 1019.4284
59.7600 1105.4122
59.7700 1054.3088
59.7800 967.3652
59.7900 982.8276
59.8000 1028.7826
59.8100 1044.4692
59.8200 1012.2242
59.8300 1050.9450
59.8400 1063.9314
59.8500 1045.1194
59.8600 1052.7002
59.8700 1081.1768
59.8800 1138.4918
59.8900 1235.7308
59.9000 1222.6024
59.9100 1189.4490
59.9200 1192.2868
59.9300 1227.9402
59.9400 1212.8426
59.9500 1154.7402
59.9600 1165.5120
59.9700 1196.3500
59.9800 1209.5532
59.9900 1155.1630
60.0000 1154.2756
60.0100 1231.3858
60.0200 1394.9448
60.0300 1302.1972
60.0400 1231.2278
60.0500 1242.9584
60.0600 1297.2672
60.0700 1271.2994
60.0800 1269.5530
60.0900 1515.7776
60.1000 1553.4432
60.1100 1494.2950
60.1200 1453.3748
60.1300 1632.9594
60.1400 1698.4788
60.1500 1580.0508
60.1600 1619.1680
60.1700 1704.8052
60.1800 1741.1852
60.1900 1557.3296
60.2000 1655.4668
60.2100 1822.5800
60.2200 1863.9974
60.2300 1929.2210
60.2400 1947.1196
60.2500 1897.4648
60.2600 1896.9178
60.2700 1926.8238
60.2800 1977.0078
60.2900 2038.5934
60.3000 2151.1846
60.3100 2205.4650
60.3200 2071.1002
60.3300 2067.7736
60.3400 2108.3498
60.3500 2159.9650
60.3600 2292.7872
60.3700 2175.1536
60.3800 1864.0412
60.3900 1742.3960
60.4000 1727.4134
60.4100 1737.8082
60.4200 1686.2726
60.4300 1556.5256
60.4400 1546.3280
60.4500 1743.6470
60.4600 1690.9888
60.4700 1628.5138
60.4800 1619.5350
60.4900 1649.7214
60.5000 1550.4390
60.5100 1423.6576
60.5200 1443.8866
60.5300 1344.2204
60.5400 1270.3276
60.5500 1329.1240
60.5600 1367.4178
60.5700 1356.9176
60.5800 1287.4118
60.5900 1162.4582
60.6000 1162.9940
60.6100 1223.0830
60.6200 1194.6992
60.6300 1215.7118
60.6400 1198.3020
60.6500 1071.9112
60.6600 1075.9864
60.6700 1101.1536
60.6800 1114.5982
60.6900 1157.4208
60.7000 1153.7454
60.7100 1121.3788
60.7200 1168.0540
60.7300 1221.8344
60.7400 1213.7248
60.7500 1081.4234
60.7600 1186.3596
60.7700 1259.3096
60.7800 1189.3310
60.7900 1083.2956
60.8000 1090.8972
60.8100 1169.1104
60.8200 1148.6032
60.8300 1101.2798
60.8400 1045.2028
60.8500 1003.2704
60.8600 1155.3036
60.8700 1171.5298
60.8800 924.4396
60.8900 1082.0846
60.9000 1128.9192
60.9100 1065.9188
60.9200 1135.8878
60.9300 1176.3948
60.9400 1175.7270
60.9500 1140.7592
60.9600 1259.1924
60.9700 1353.4454
60.9800 1320.0118
60.9900 1283.5750
61.0000 1314.2616
61.0100 1377.2104
61.0200 1284.7640
61.0300 1343.4750
61.0400 1477.5540
61.0500 1532.1484
61.0600 1440.4922
61.0700 1399.8412
61.0800 1523.3128
61.0900 1582.6980
61.1000 1632.3560
61.1100 1686.3712
61.1200 1726.4032
61.1300 1633.5754
61.1400 1518.8468
61.1500 1600.3144
61.1600 1570.9750
61.1700 1506.1628
61.1800 1487.0850
61.1900 1603.5468
61.2000 1525.7020
61.2100 1206.4546
61.2200 1100.1528
61.2300 1171.9718
61.2400 1311.5258
61.2500 1327.6918
61.2600 1331.3598
61.2700 1364.1958
61.2800 1455.5848
61.2900 1473.7718
61.3000 1385.8708
61.3100 1230.8154
61.3200 1365.7138
61.3300 1441.2030
61.3400 1399.3174
61.3500 1249.5096
61.3600 1162.9532
61.3700 1150.0378
61.3800 1225.8158
61.3900 1324.5982
61.4000 1343.9600
61.4100 1248.7584
61.4200 1236.3754
61.4300 1224.5094
61.4400 1220.4012
61.4500 1301.9302
61.4600 1210.3452
61.4700 1074.7148
61.4800 1084.3028
61.4900 1122.5072
61.5000 1070.0088
61.5100 896.7246
61.5200 1025.0254
61.5300 1132.7338
61.5400 1142.4078
61.5500 1088.6988
61.5600 1063.8556
61.5700 1061.7050
61.5800 1220.4192
61.5900 1232.3700
61.6000 1183.6416
61.6100 1112.8352
61.6200 1099.1252
61.6300 1094.9326
61.6400 1094.0308
61.6500 1132.0502
61.6600 1182.0102
61.6700 1212.0078
61.6800 1168.8440
61.6900 1169.3958
61.7000 1176.9054
61.7100 1160.1466
61.7200 1160.5416
61.7300 1207.7644
61.7400 1292.9284
61.7500 1179.3896
61.7600 1162.8472
61.7700 1208.5906
61.7800 1206.0034
61.7900 1230.9282
61.8000 1221.7636
61.8100 1119.4652
61.8200 1136.4116
61.8300 1173.1090
61.8400 1181.8002
61.8500 1142.4522
61.8600 1142.0078
61.8700 1196.9638
61.8800 1312.1698
61.8900 1218.6810
61.9000 1103.6108
61.9100 1182.8652
61.9200 1055.9508
61.9300 964.3008
61.9400 1012.3898
61.9500 1146.5208
61.9600 1173.5206
61.9700 1067.2772
61.9800 865.8852
61.9900 887.1654
62.0000 1008.9558
62.0100 1060.9262
62.0200 1070.7346
62.0300 1091.0372
62.0400 1133.0118
62.0500 1044.5814
62.0600 1005.6222
62.0700 1047.5550
62.0800 1112.7474
62.0900 996.1160
62.1000 875.3700
62.1100 1036.6562
62.1200 1163.5032
62.1300 1207.2236
62.1400 1136.4246
62.1500 1053.4640
62.1600 996.1400
62.1700 965.8590
62.1800 919.2650
62.1900 934.8052
62.2000 979.5554
62.2100 984.6790
62.2200 995.0072
62.2300 1048.2492
62.2400 1157.3736
62.2500 1055.4870
62.2600 1087.7696
62.2700 1270.4858
62.2800 1024.7810
62.2900 920.0268
62.3000 950.0302
62.3100 931.7024
62.3200 917.4644
62.3300 890.8144
62.3400 839.5516
62.3500 897.5222
62.3600 969.3036
62.3700 991.6772
62.3800 852.4530
62.3900 865.0790
62.4000 990.0098
62.4100 1001.2502
62.4200 966.3742
62.4300 929.2626
62.4400 960.3610
62.4500 989.4984
62.4600 965.6324
62.4700 875.7664
62.4800 876.4078
62.4900 905.8596
62.5000 940.8942
62.5100 959.6504
62.5200 1064.6622
62.5300 1150.3758
62.5400 1069.9338
62.5500 1061.7120
62.5600 995.2458
62.5700 829.1100
62.5800 959.6846
62.5900 1026.9356
62.6000 980.4106
62.6100 888.0402
62.6200 905.7754
62.6300 973.7248
62.6400 1015.9728
62.6500 1015.7292
62.6600 975.8150
62.6700 910.2328
62.6800 995.7376
62.6900 1012.5146
62.7000 940.7244
62.7100 988.4126
62.7200 996.2634
62.7300 981.6676
62.7400 1007.3682
62.7500 964.4304
62.7600 916.0940
62.7700 914.1800
62.7800 1020.2936
62.7900 1088.8876
62.8000 1088.2100
62.8100 1044.8228
62.8200 939.4968
62.8300 872.6864
62.8400 1060.9870
62.8500 1035.4352
62.8600 950.0018
62.8700 963.5936
62.8800 1007.9484
62.8900 966.1418
62.9000 839.4204
62.9100 954.2910
62.9200 987.3230
62.9300 930.8934
62.9400 903.9458
62.9500 1025.6476
62.9600 1129.3276
62.9700 1039.3184
62.9800 917.2872
62.9900 911.0764
63.0000 1067.9334
63.0100 1111.0866
63.0200 1139.8892
63.0300 1187.9146
63.0400 1285.4460
63.0500 1291.3478
63.0600 1276.5710
63.0700 1339.9758
63.0800 1374.5568
63.0900 1337.2006
63.1000 1205.9832
63.1100 1101.8000
63.1200 1085.8900
63.1300 1163.7402
63.1400 1300.8770
63.1500 1218.4210
63.1600 1095.8850
63.1700 1224.4146
63.1800 1171.6786
63.1900 1091.7308
63.2000 1080.7268
63.2100 968.8114
63.2200 896.0778
63.2300 919.2406
63.2400 1082.2018
63.2500 1253.0156
63.2600 1360.1998
63.2700 1293.4838
63.2800 1185.5196
63.2900 1116.2788
63.3000 1136.0006
63.3100 1072.0612
63.3200 1138.0286
63.3300 1308.0218
63.3400 1056.2994
63.3500 1006.9314
63.3600 1094.1428
63.3700 1005.8416
63.3800 1012.7356
63.3900 993.0146
63.4000 841.1486
63.4100 994.1698
63.4200 1107.4048
63.4300 1052.0026
63.4400 985.2980
63.4500 985.6730
63.4600 1029.3266
63.4700 1054.5488
63.4800 1069.4872
63.4900 1078.8758
63.5000 1078.0240
63.5100 1051.1146
63.5200 962.6280
63.5300 826.7548
63.5400 898.3364
63.5500 1028.5722
63.5600 1121.6876
63.5700 998.0828
63.5800 947.6618
63.5900 931.0750
63.6000 867.7296
63.6100 774.6536
63.6200 733.8156
63.6300 785.4400
63.6400 876.5008
63.6500 918.1896
63.6600 927.9016
63.6700 989.0182
63.6800 1017.8836
63.6900 1011.1658
63.7000 971.9188
63.7100 995.0374
63.7200 1002.4444
63.7300 959.4452
63.7400 1077.9332
63.7500 1063.7802
63.7600 916.2958
63.7700 1007.7180
63.7800 958.5386
63.7900 865.2342
63.8000 973.2124
63.8100 962.3018
63.8200 925.7610
63.8300 932.3120
63.8400 897.6534
63.8500 923.8642
63.8600 1008.8834
63.8700 951.2870
63.8800 913.5756
63.8900 911.4072
63.9000 926.3228
63.9100 856.0384
63.9200 834.7986
63.9300 986.7056
63.9400 1020.0384
63.9500 988.4582
63.9600 924.4314
63.9700 903.6686
63.9800 986.0156
63.9900 1089.5330
64.0000 998.7908
64.0100 873.5308
64.0200 863.0562
64.0300 1116.0804
64.0400 1125.7360
64.0500 1041.0998
64.0600 942.1650
64.0700 906.0076
64.0800 863.8514
64.0900 835.1288
64.1000 918.9900
64.1100 857.9952
64.1200 767.9676
64.1300 821.7982
64.1400 974.1238
64.1500 1054.9054
64.1600 987.1276
64.1700 1023.6270
64.1800 1023.6894
64.1900 963.4384
64.2000 885.8842
64.2100 906.9552
64.2200 942.9426
64.2300 867.6492
64.2400 968.0904
64.2500 1006.0396
64.2600 843.5234
64.2700 897.3358
64.2800 996.9720
64.2900 1060.0906
64.3000 968.8660
64.3100 899.6814
64.3200 867.8068
64.3300 1028.3248
64.3400 1066.6220
64.3500 1012.0422
64.3600 871.7656
64.3700 888.8510
64.3800 906.7216
64.3900 899.2894
64.4000 1007.2526
64.4100 1023.5388
64.4200 967.4596
64.4300 930.7340
64.4400 1000.3548
64.4500 1038.5480
64.4600 916.1484
64.4700 815.4190
64.4800 807.0276
64.4900 896.5760
64.5000 998.7196
64.5100 1040.1282
64.5200 1022.1374
64.5300 924.8254
64.5400 867.5720
64.5500 862.0038
64.5600 914.6170
64.5700 870.1782
64.5800 846.1260
64.5900 883.3276
64.6000 842.6032
64.6100 863.8138
64.6200 954.0480
64.6300 1054.5540
64.6400 1041.6570
64.6500 966.1750
64.6600 889.9608
64.6700 934.6584
64.6800 991.3568
64.6900 1006.1634
64.7000 968.6710
64.7100 920.9298
64.7200 891.4840
64.7300 939.1278
64.7400 886.9756
64.7500 870.9690
64.7600 1110.9126
64.7700 1049.7018
64.7800 850.6640
64.7900 647.8020
64.8000 733.7522
64.8100 881.5032
64.8200 972.3522
64.8300 808.3552
64.8400 800.7814
64.8500 896.3976
64.8600 941.1642
64.8700 962.4504
64.8800 970.8414
64.8900 969.1432
64.9000 958.7568
64.9100 976.1244
64.9200 1025.3424
64.9300 1056.8932
64.9400 1048.7726
64.9500 1040.7272
64.9600 1116.5954
64.9700 1139.4110
64.9800 1111.9154
64.9900 1027.3776
65.0000 864.7124
65.0100 789.1260
65.0200 860.2646
65.0300 969.9748
65.0400 1047.0776
65.0500 1040.8576
65.0600 847.6416
65.0700 836.3696
65.0800 921.6650
65.0900 999.5448
65.1000 965.5154
65.1100 991.0646
65.1200 1114.3872
65.1300 998.1468
65.1400 978.9842
65.1500 1059.7042
65.1600 1054.2982
65.1700 981.6926
65.1800 906.8754
65.1900 1056.3666
65.2000 974.0894
65.2100 919.1870
65.2200 1016.3018
65.2300 1138.2536
65.2400 1050.6958
65.2500 818.6644
65.2600 843.6562
65.2700 886.4324
65.2800 910.2194
65.2900 910.1524
65.3000 1052.8490
65.3100 1075.0610
65.3200 838.6604
65.3300 938.5612
65.3400 967.9824
65.3500 861.0468
65.3600 842.4728
65.3700 895.9164
65.3800 950.4492
65.3900 897.9172
65.4000 885.6834
65.4100 887.2160
65.4200 876.9922
65.4300 849.2198
65.4400 818.1504
65.4500 832.9914
65.4600 1086.5446
65.4700 1142.5662
65.4800 1042.7870
65.4900 968.1686
65.5000 946.2182
65.5100 895.6604
65.5200 750.2844
65.5300 850.3274
65.5400 934.5210
65.5500 932.3468
65.5600 940.7156
65.5700 927.0348
65.5800 915.1968
65.5900 974.2608
65.6000 972.2852
65.6100 948.7508
65.6200 948.0368
65.6300 926.1254
65.6400 947.4384
65.6500 1019.2374
65.6600 954.8794
65.6700 819.5670
65.6800 691.0968
65.6900 743.2210
65.7000 885.7976
65.7100 946.3984
65.7200 745.5664
65.7300 856.8568
65.7400 961.8376
65.7500 888.9302
65.7600 817.6506
65.7700 884.5436
65.7800 1043.6018
65.7900 1039.0050
65.8000 989.6228
65.8100 944.4126
65.8200 943.5590
65.8300 820.3472
65.8400 793.1560
65.8500 979.9088
65.8600 926.3676
65.8700 858.2342
65.8800 853.1166
65.8900 946.4202
65.9000 987.5040
65.9100 976.6502
65.9200 933.7802
65.9300 887.2306
65.9400 886.8294
65.9500 963.7568
65.9600 939.9340
65.9700 913.3386
65.9800 915.5282
65.9900 929.8298
66.0000 902.7012
66.0100 868.4578
66.0200 908.3270
66.0300 928.8568
66.0400 946.8820
66.0500 975.9660
66.0600 936.1498
66.0700 929.8606
66.0800 984.0836
66.0900 997.4760
66.1000 981.1602
66.1100 978.6460
66.1200 1082.5832
66.1300 997.7596
66.1400 891.5112
66.1500 944.0554
66.1600 915.1214
66.1700 904.1382
66.1800 943.5742
66.1900 902.0330
66.2000 854.0300
66.2100 820.8134
66.2200 855.6042
66.2300 959.4884
66.2400 1027.8216
66.2500 922.0772
66.2600 865.8894
66.2700 865.5180
66.2800 907.8898
66.2900 843.4834
66.3000 801.1370
66.3100 826.5934
66.3200 966.8820
66.3300 1046.3398
66.3400 1070.9400
66.3500 1055.6102
66.3600 926.3014
66.3700 908.6732
66.3800 1129.1782
66.3900 892.9212
66.4000 795.1126
66.4100 897.4960
66.4200 945.1936
66.4300 977.5296
66.4400 980.0168
66.4500 914.9178
66.4600 964.3566
66.4700 1054.4814
66.4800 1122.5636
66.4900 1097.2980
66.5000 1028.2250
66.5100 940.2466
66.5200 879.9830
66.5300 889.6734
66.5400 915.7342
66.5500 848.7006
66.5600 842.4794
66.5700 876.7916
66.5800 928.2914
66.5900 896.4304
66.6000 966.9720
66.6100 1171.2446
66.6200 1220.5332
66.6300 1175.9396
66.6400 1082.2884
66.6500 1001.1290
66.6600 974.1690
66.6700 970.4072
66.6800 962.7070
66.6900 962.8578
66.7000 940.5236
66.7100 902.5506
66.7200 991.9840
66.7300 1061.6170
66.7400 1076.8830
66.7500 1026.0830
66.7600 1162.3766
66.7700 1301.6932
66.7800 1199.3138
66.7900 1081.0292
66.8000 978.9166
66.8100 921.4278
66.8200 990.8146
66.8300 1036.4854
66.8400 1053.8318
66.8500 1146.0112
66.8600 1168.3646
66.8700 1178.5576
66.8800 1267.0814
66.8900 1194.5822
66.9000 1129.8948
66.9100 1181.8764
66.9200 1252.2750
66.9300 1224.9918
66.9400 1134.4950
66.9500 1241.9164
66.9600 1229.3650
66.9700 1184.4956
66.9800 1304.1408
66.9900 1232.8482
67.0000 1140.0352
67.0100 1140.7742
67.0200 1004.1786
67.0300 1008.9098
67.0400 1174.9250
67.0500 1126.3588
67.0600 1082.4442
67.0700 1067.6012
67.0800 1070.1096
67.0900 1105.3200
67.1000 1157.5428
67.1100 1205.2558
67.1200 1133.8486
67.1300 1101.4462
67.1400 1143.7424
67.1500 1093.3856
67.1600 1118.0906
67.1700 1174.0198
67.1800 1098.4428
67.1900 1037.0320
67.2000 968.1786
67.2100 867.1534
67.2200 910.5320
67.2300 961.7170
67.2400 962.9016
67.2500 1012.8096
67.2600 1029.7896
67.2700 991.5988
67.2800 852.9568
67.2900 882.2958
67.3000 1024.4482
67.3100 1198.3076
67.3200 1108.6808
67.3300 980.2058
67.3400 934.9910
67.3500 960.4854
67.3600 1017.9946
67.3700 1091.5090
67.3800 1159.4780
67.3900 1080.6762
67.4000 946.7184
67.4100 889.8970
67.4200 958.4112
67.4300 1042.4808
67.4400 1069.7366
67.4500 910.8118
67.4600 821.7894
67.4700 846.1388
67.4800 865.2052
67.4900 881.0146
67.5000 886.6140
67.5100 870.5692
67.5200 927.0926
67.5300 975.2372
67.5400 961.0188
67.5500 1012.1410
67.5600 1055.8890
67.5700 1052.7562
67.5800 946.3390
67.5900 900.7736
67.6000 928.2576
67.6100 1021.3224
67.6200 1051.7866
67.6300 1008.7182
67.6400 891.7590
67.6500 949.0520
67.6600 969.0754
67.6700 908.7280
67.6800 1005.0262
67.6900 1016.2696
67.7000 955.4610
67.7100 937.6424
67.7200 1013.1204
67.7300 1078.3332
67.7400 1027.1816
67.7500 978.0640
67.7600 956.4106
67.7700 968.9998
67.7800 972.6074
67.7900 994.4890
67.8000 1007.3572
67.8100 920.3128
67.8200 816.5654
67.8300 785.9820
67.8400 934.1780
67.8500 973.5166
67.8600 997.0082
67.8700 1029.8430
67.8800 882.7404
67.8900 838.5460
67.9000 883.5204
67.9100 764.8104
67.9200 793.2692
67.9300 883.4896
67.9400 827.8438
67.9500 779.4680
67.9600 802.4158
67.9700 934.2490
67.9800 979.9278
67.9900 985.2832
68.0000 964.4538
68.0100 922.1242
68.0200 971.8092
68.0300 1056.4210
68.0400 1065.1506
68.0500 950.4564
68.0600 822.7150
68.0700 764.9818
68.0800 787.2946
68.0900 840.1684
68.1000 896.5778
68.1100 842.8284
68.1200 847.2890
68.1300 920.3118
68.1400 1066.4146
68.1500 1005.0656
68.1600 889.1536
68.1700 849.5238
68.1800 834.8070
68.1900 833.1024
68.2000 863.5548
68.2100 1029.1698
68.2200 967.9308
68.2300 770.1318
68.2400 752.0826
68.2500 854.0152
68.2600 967.3540
68.2700 995.9058
68.2800 1046.9980
68.2900 1021.6780
68.3000 891.1170
68.3100 786.5460
68.3200 722.5152
68.3300 690.0790
68.3400 669.7580
68.3500 818.5510
68.3600 1006.3996
68.3700 1068.6462
68.3800 969.8866
68.3900 903.8830
68.4000 932.0234
68.4100 725.0066
68.4200 754.7360
68.4300 993.7840
68.4400 1015.9926
68.4500 1015.2358
68.4600 999.1842
68.4700 944.7642
68.4800 966.8692
68.4900 1043.2090
68.5000 1134.2164
68.5100 986.0342
68.5200 892.3408
68.5300 918.2660
68.5400 991.1448
68.5500 928.3166
68.5600 849.7234
68.5700 972.9052
68.5800 966.0098
68.5900 950.3700
68.6000 1016.5246
68.6100 1043.4596
68.6200 1034.7384
68.6300 983.5940
68.6400 864.9234
68.6500 969.3868
68.6600 1156.7578
68.6700 1107.3858
68.6800 1109.6500
68.6900 1141.7506
68.7000 1170.0654
68.7100 1152.6360
68.7200 1050.6400
68.7300 929.4152
68.7400 1218.5226
68.7500 1314.5904
68.7600 1203.0062
68.7700 1046.0772
68.7800 1037.6730
68.7900 1081.3046
68.8000 1334.0086
68.8100 1422.5766
68.8200 1321.8930
68.8300 1061.7808
68.8400 1179.5674
68.8500 1305.6350
68.8600 1337.7878
68.8700 1198.7300
68.8800 1127.1248
68.8900 1102.3460
68.9000 1092.4594
68.9100 1165.9756
68.9200 1171.8064
68.9300 1055.8498
68.9400 1093.2766
68.9500 1080.0562
68.9600 1007.9806
68.9700 1068.4834
68.9800 1182.2728
68.9900 1247.5416
69.0000 1115.5136
69.0100 1095.7746
69.0200 1116.2864
69.0300 1118.8078
69.0400 1018.5374
69.0500 980.3610
69.0600 1006.3700
69.0700 933.2902
69.0800 950.5576
69.0900 1034.0068
69.1000 1119.4712
69.1100 1077.5372
69.1200 1045.5182
69.1300 1115.6586
69.1400 916.8030
69.1500 830.8526
69.1600 903.4404
69.1700 924.2294
69.1800 1020.2302
69.1900 1121.3964
69.2000 1060.3444
69.2100 956.9812
69.2200 881.7614
69.2300 880.9762
69.2400 801.5046
69.2500 729.6984
69.2600 706.3694
69.2700 753.3364
69.2800 831.5280
69.2900 918.4056
69.3000 982.2394
69.3100 937.7986
69.3200 902.1778
69.3300 983.9566
69.3400 1051.0532
69.3500 1002.9206
69.3600 820.6938
69.3700 743.5480
69.3800 797.9660
69.3900 899.0726
69.4000 829.0882
69.4100 899.5122
69.4200 1012.8102
69.4300 1034.1580
69.4400 1014.0664
69.4500 966.7916
69.4600 912.2924
69.4700 970.0096
69.4800 959.2492
69.4900 873.6236
69.5000 820.1082
69.5100 851.8880
69.5200 867.0160
69.5300 730.8650
69.5400 790.8294
69.5500 893.7898
69.5600 929.5660
69.5700 809.1016
69.5800 761.6572
69.5900 819.0848
69.6000 863.6144
69.6100 905.9590
69.6200 941.2028
69.6300 950.0514
69.6400 825.1268
69.6500 786.6226
69.6600 968.6412
69.6700 886.3262
69.6800 763.3580
69.6900 686.4834
69.7000 708.2278
69.7100 703.6420
69.7200 721.0746
69.7300 884.1878
69.7400 830.9006
69.7500 754.4954
69.7600 813.0936
69.7700 770.0050
69.7800 786.7478
69.7900 886.6762
69.8000 842.0628
69.8100 859.9244
69.8200 923.9424
69.8300 896.9882
69.8400 865.7892
69.8500 836.8394
69.8600 811.0908
69.8700 725.7160
69.8800 706.1164
69.8900 790.3728
69.9000 813.4846
69.9100 844.2970
69.9200 859.1506
69.9300 757.7860
69.9400 741.3294
69.9500 794.1152
69.9600 885.8130
69.9700 838.3906
69.9800 816.4506
69.9900 891.4880
70.0000 779.8028
70.0100 661.3584
70.0200 613.2492
70.0300 815.5636
70.0400 885.8536
70.0500 859.3758
70.0600 811.5770
70.0700 762.7170
70.0800 770.2890
70.0900 853.1726
70.1000 794.4732
70.1100 763.6612
70.1200 792.3594
70.1300 824.7048
70.1400 923.1920
70.1500 996.2664
70.1600 886.0910
70.1700 710.9762
70.1800 589.7758
70.1900 598.5088
70.2000 760.5100
70.2100 895.2086
70.2200 960.6220
70.2300 1030.0982
70.2400 906.4110
70.2500 709.6858
70.2600 692.3910
70.2700 729.2970
70.2800 801.0430
70.2900 897.2512
70.3000 886.5876
70.3100 803.6486
70.3200 693.9496
70.3300 739.3398
70.3400 753.3538
70.3500 727.8960
70.3600 710.5082
70.3700 789.7112
70.3800 887.2590
70.3900 924.0910
70.4000 904.2580
70.4100 846.2708
70.4200 787.2378
70.4300 913.3232
70.4400 958.9440
70.4500 938.7634
70.4600 1012.2086
70.4700 933.7980
70.4800 861.1300
70.4900 979.0748
70.5000 883.5126
70.5100 777.9012
70.5200 777.4114
70.5300 882.0368
70.5400 974.6274
70.5500 1022.8544
70.5600 1005.7488
70.5700 928.3104
70.5800 840.7864
70.5900 805.3452
70.6000 802.7378
70.6100 842.8668
70.6200 919.4218
70.6300 865.0522
70.6400 861.4748
70.6500 916.1490
70.6600 876.0976
70.6700 837.5176
70.6800 814.5474
70.6900 836.7960
70.7000 857.0080
70.7100 910.3600
70.7200 998.2866
70.7300 865.0272
70.7400 846.1928
70.7500 962.4206
70.7600 825.5750
70.7700 822.5890
70.7800 892.6528
70.7900 841.2018
70.8000 836.6194
70.8100 834.7358
70.8200 808.7050
70.8300 950.3024
70.8400 1000.7994
70.8500 901.0040
70.8600 863.9702
70.8700 877.1742
70.8800 903.9704
70.8900 886.1928
70.9000 862.4374
70.9100 823.1464
70.9200 763.0306
70.9300 826.0254
70.9400 903.2764
70.9500 933.6916
70.9600 851.5398
70.9700 763.1802
70.9800 718.0312
70.9900 793.7416
71.0000 825.2850
71.0100 827.1148
71.0200 824.9494
71.0300 712.4346
71.0400 702.2282
71.0500 866.0288
71.0600 943.7222
71.0700 874.4418
71.0800 720.9574
71.0900 700.4078
71.1000 736.5652
71.1100 777.2350
71.1200 777.9114
71.1300 908.6272
71.1400 992.8886
71.1500 919.0304
71.1600 786.3928
71.1700 765.6604
71.1800 848.1344
71.1900 840.6574
71.2000 821.3972
71.2100 808.4810
71.2200 809.2914
71.2300 732.0294
71.2400 665.7442
71.2500 680.9724
71.2600 768.7612
71.2700 797.2630
71.2800 765.9468
71.2900 855.0404
71.3000 882.1288
71.3100 820.6186
71.3200 653.2706
71.3300 658.8724
71.3400 720.5636
71.3500 753.5670
71.3600 874.1462
71.3700 865.4702
71.3800 703.6570
71.3900 723.5026
71.4000 738.1786
71.4100 734.6586
71.4200 749.4552
71.4300 682.2264
71.4400 657.7574
71.4500 796.9974
71.4600 819.5344
71.4700 795.2562
71.4800 764.2186
71.4900 789.5406
71.5000 750.6266
71.5100 685.8936
71.5200 746.6998
71.5300 791.6798
71.5400 813.7880
71.5500 805.0428
71.5600 912.1202
71.5700 970.7562
71.5800 892.8524
71.5900 728.0728
71.6000 645.4950
71.6100 669.6648
71.6200 769.8592
71.6300 729.7386
71.6400 677.9432
71.6500 797.5590
71.6600 794.1452
71.6700 741.3758
71.6800 700.9246
71.6900 806.5312
71.7000 844.0340
71.7100 793.6166
71.7200 795.4684
71.7300 769.9088
71.7400 724.4678
71.7500 685.8866
71.7600 800.5496
71.7700 895.1152
71.7800 852.3404
71.7900 822.8174
71.8000 750.8120
71.8100 675.5268
71.8200 836.4844
71.8300 794.2338
71.8400 674.5122
71.8500 791.8492
71.8600 823.4738
71.8700 817.2812
71.8800 820.0086
71.8900 753.6152
71.9000 723.6818
71.9100 744.0674
71.9200 734.5262
71.9300 750.4968
71.9400 777.6284
71.9500 769.7754
71.9600 797.7768
71.9700 813.2028
71.9800 776.8486
71.9900 886.9770
72.0000 893.0924
72.0100 749.9676
72.0200 894.5708
72.0300 886.3894
72.0400 757.2532
72.0500 780.0958
72.0600 811.5082
72.0700 838.3240
72.0800 854.8326
72.0900 753.6018
72.1000 702.0496
72.1100 767.4668
72.1200 761.8504
72.1300 747.0618
72.1400 729.1822
72.1500 682.4406
72.1600 668.7636
72.1700 738.7252
72.1800 953.7252
72.1900 872.3166
72.2000 844.0956
72.2100 1025.9738
72.2200 860.2516
72.2300 791.9558
72.2400 862.2046
72.2500 798.2944
72.2600 783.6614
72.2700 773.3866
72.2800 672.3390
72.2900 702.5664
72.3000 780.3390
72.3100 837.8658
72.3200 778.2674
72.3300 701.4632
72.3400 676.3440
72.3500 852.7722
72.3600 846.1752
72.3700 764.6562
72.3800 869.9724
72.3900 806.5522
72.4000 700.7148
72.4100 666.7892
72.4200 718.7842
72.4300 778.2100
72.4400 807.6276
72.4500 765.9186
72.4600 724.8466
72.4700 708.8164
72.4800 746.4570
72.4900 709.2992
72.5000 663.9738
72.5100 683.1396
72.5200 768.3956
72.5300 813.4270
72.5400 807.1494
72.5500 963.1572
72.5600 950.3062
72.5700 814.5022
72.5800 660.2176
72.5900 752.9002
72.6000 848.8838
72.6100 715.1180
72.6200 758.8574
72.6300 843.6726
72.6400 878.4198
72.6500 741.5232
72.6600 689.7816
72.6700 741.5640
72.6800 792.0792
72.6900 770.7672
72.7000 721.4458
72.7100 699.7582
72.7200 679.2790
72.7300 730.8774
72.7400 882.4440
72.7500 885.5954
72.7600 833.8146
72.7700 756.6006
72.7800 684.7438
72.7900 774.1494
72.8000 894.5610
72.8100 837.4972
72.8200 824.4494
72.8300 809.2908
72.8400 767.2270
72.8500 838.1956
72.8600 850.7390
72.8700 787.1874
72.8800 802.2014
72.8900 790.0396
72.9000 792.2096
72.9100 910.4006
72.9200 1014.0880
72.9300 998.3296
72.9400 795.4112
72.9500 751.5140
72.9600 751.5364
72.9700 761.3176
72.9800 812.8116
72.9900 859.8056
73.0000 865.9614
73.0100 765.2360
73.0200 778.4726
73.0300 819.0678
73.0400 812.9306
73.0500 943.2738
73.0600 954.9488
73.0700 807.5600
73.0800 964.6534
73.0900 948.3616
73.1000 804.4632
73.1100 842.2098
73.1200 826.4522
73.1300 830.8738
73.1400 945.7726
73.1500 839.9240
73.1600 758.0400
73.1700 807.8516
73.1800 823.0792
73.1900 805.6618
73.2000 751.8616
73.2100 644.8148
73.2200 663.8642
73.2300 735.9758
73.2400 760.1170
73.2500 747.1940
73.2600 775.4366
73.2700 881.0140
73.2800 929.0068
73.2900 895.3324
73.3000 787.3600
73.3100 650.4068
73.3200 691.5680
73.3300 792.2870
73.3400 761.6292
73.3500 756.7302
73.3600 736.2564
73.3700 675.3860
73.3800 692.0990
73.3900 740.8534
73.4000 799.6912
73.4100 833.8098
73.4200 805.1356
73.4300 753.6528
73.4400 882.3504
73.4500 852.4518
73.4600 762.8184
73.4700 682.1960
73.4800 739.9570
73.4900 747.8254
73.5000 679.4338
73.5100 750.5552
73.5200 850.3370
73.5300 914.2618
73.5400 839.4390
73.5500 734.4710
73.5600 694.4222
73.5700 803.9646
73.5800 854.9790
73.5900 846.4642
73.6000 790.8000
73.6100 871.0472
73.6200 808.4022
73.6300 688.9700
73.6400 795.7234
73.6500 824.0242
73.6600 815.3720
73.6700 828.3064
73.6800 769.3844
73.6900 742.1384
73.7000 790.9186
73.7100 822.9686
73.7200 847.8804
73.7300 864.3040
73.7400 858.6730
73.7500 797.1472
73.7600 715.4544
73.7700 658.2010
73.7800 672.8822
73.7900 713.9454
73.8000 754.2444
73.8100 724.2184
73.8200 674.9038
73.8300 653.8468
73.8400 776.2220
73.8500 758.9532
73.8600 717.5306
73.8700 855.7332
73.8800 834.2924
73.8900 780.0658
73.9000 781.4786
73.9100 805.2544
73.9200 845.3304
73.9300 886.6970
73.9400 874.4224
73.9500 823.2578
73.9600 782.9608
73.9700 832.0008
73.9800 835.9588
73.9900 822.2548
74.0000 813.7812
74.0100 797.2754
74.0200 796.6906
74.0300 830.8554
74.0400 936.9266
74.0500 860.1760
74.0600 703.7812
74.0700 739.0194
74.0800 751.5484
74.0900 778.9282
74.1000 860.4566
74.1100 800.9032
74.1200 723.4368
74.1300 691.8164
74.1400 763.3994
74.1500 840.4304
74.1600 898.4484
74.1700 918.7416
74.1800 860.6478
74.1900 813.3972
74.2000 868.2538
74.2100 837.0258
74.2200 814.4964
74.2300 859.0426
74.2400 1002.2098
74.2500 988.1196
74.2600 850.4906
74.2700 827.5740
74.2800 849.4940
74.2900 878.0830
74.3000 954.3854
74.3100 1035.4868
74.3200 1036.7712
74.3300 919.0220
74.3400 941.1516
74.3500 928.2578
74.3600 874.1818
74.3700 910.8332
74.3800 924.5238
74.3900 915.7656
74.4000 898.0296
74.4100 852.0980
74.4200 800.8356
74.4300 766.8480
74.4400 808.0618
74.4500 902.3284
74.4600 1014.6274
74.4700 1029.1916
74.4800 988.1232
74.4900 912.4828
74.5000 819.9016
74.5100 849.1284
74.5200 894.1816
74.5300 882.9798
74.5400 953.2088
74.5500 1019.6230
74.5600 1053.7894
74.5700 1071.1504
74.5800 1033.0334
74.5900 954.3654
74.6000 871.4788
74.6100 952.3936
74.6200 991.9258
74.6300 806.1274
74.6400 893.4692
74.6500 925.9824
74.6600 833.6146
74.6700 910.6536
74.6800 907.4974
74.6900 829.3890
74.7000 784.7436
74.7100 686.8620
74.7200 661.5294
74.7300 846.5096
74.7400 799.4590
74.7500 723.2832
74.7600 715.3214
74.7700 738.2654
74.7800 806.2480
74.7900 861.1242
74.8000 729.8680
74.8100 708.3816
74.8200 746.6514
74.8300 763.7520
74.8400 741.9110
74.8500 754.2160
74.8600 828.6486
74.8700 813.7976
74.8800 797.8902
74.8900 791.1240
74.9000 751.3978
74.9100 745.0152
74.9200 775.2532
74.9300 843.8770
74.9400 866.8544
74.9500 820.4268
74.9600 697.9022
74.9700 691.6362
74.9800 692.3552
74.9900 689.0132
75.0000 768.0642
75.0100 802.3302
75.0200 774.0366
75.0300 671.8500
75.0400 717.8696
75.0500 765.9036
75.0600 707.3296
75.0700 712.5018
75.0800 718.6944
75.0900 701.3318
75.1000 656.7300
75.1100 692.0306
75.1200 752.8470
75.1300 705.3706
75.1400 712.0410
75.1500 749.2628
75.1600 788.8198
75.1700 787.0484
75.1800 834.5416
75.1900 921.8230
75.2000 775.2726
75.2100 669.3454
75.2200 644.2914
75.2300 689.7362
75.2400 767.9036
75.2500 825.0496
75.2600 805.7056
75.2700 789.7412
75.2800 785.1440
75.2900 792.7198
75.3000 791.5424
75.3100 749.6424
75.3200 688.2538
75.3300 643.5998
75.3400 593.8824
75.3500 586.3608
75.3600 694.6078
75.3700 675.1576
75.3800 674.6052
75.3900 758.4020
75.4000 728.6922
75.4100 700.4660
75.4200 690.5922
75.4300 658.4660
75.4400 703.9688
75.4500 765.8136
75.4600 751.5936
75.4700 846.3638
75.4800 888.5650
75.4900 779.2242
75.5000 818.9560
75.5100 851.5918
75.5200 834.3724
75.5300 745.4038
75.5400 714.9068
75.5500 720.4898
75.5600 711.3358
75.5700 841.4194
75.5800 882.0060
75.5900 673.6640
75.6000 717.0996
75.6100 752.6156
75.6200 711.6640
75.6300 715.2648
75.6400 809.9340
75.6500 897.4854
75.6600 771.2668
75.6700 629.7222
75.6800 592.7974
75.6900 743.8402
75.7000 750.8848
75.7100 710.4156
75.7200 668.4084
75.7300 665.5250
75.7400 727.3804
75.7500 794.4984
75.7600 723.9828
75.7700 813.3644
75.7800 884.6138
75.7900 742.3736
75.8000 790.6848
75.8100 838.6628
75.8200 793.1620
75.8300 697.8176
75.8400 580.0566
75.8500 516.8290
75.8600 708.3192
75.8700 685.8592
75.8800 613.0306
75.8900 725.9362
75.9000 797.6476
75.9100 803.9348
75.9200 731.3984
75.9300 640.0784
75.9400 635.4472
75.9500 733.2242
75.9600 902.4978
75.9700 848.9810
75.9800 731.5206
75.9900 800.8444
76.0000 842.8294
76.0100 881.8844
76.0200 932.6212
76.0300 924.8752
76.0400 908.4696
76.0500 881.4380
76.0600 781.2396
76.0700 794.6248
76.0800 872.4780
76.0900 909.0496
76.1000 923.3046
76.1100 910.5866
76.1200 866.3928
76.1300 865.9270
76.1400 785.7366
76.1500 640.7664
76.1600 713.1746
76.1700 770.9416
76.1800 790.5820
76.1900 943.6922
76.2000 916.3622
76.2100 822.4760
76.2200 735.8608
76.2300 692.0482
76.2400 737.8364
76.2500 844.7732
76.2600 721.1548
76.2700 644.3624
76.2800 658.0474
76.2900 761.7988
76.3000 831.8614
76.3100 854.0244
76.3200 812.7942
76.3300 766.9220
76.3400 734.5074
76.3500 723.4774
76.3600 867.1020
76.3700 849.5792
76.3800 730.1220
76.3900 762.3074
76.4000 731.4150
76.4100 697.8158
76.4200 756.0456
76.4300 768.7100
76.4400 745.7884
76.4500 712.9426
76.4600 826.9114
76.4700 798.9292
76.4800 637.2946
76.4900 597.6756
76.5000 715.9970
76.5100 866.4594
76.5200 880.1382
76.5300 800.2146
76.5400 733.0170
76.5500 732.7490
76.5600 772.5424
76.5700 825.7610
76.5800 852.9780
76.5900 733.0782
76.6000 696.1920
76.6100 700.3748
76.6200 642.3196
76.6300 726.5190
76.6400 811.1124
76.6500 778.8668
76.6600 662.1142
76.6700 644.5850
76.6800 759.3424
76.6900 842.9502
76.7000 789.9890
76.7100 704.9890
76.7200 802.1066
76.7300 775.2020
76.7400 724.1726
76.7500 738.0654
76.7600 659.5286
76.7700 620.0838
76.7800 657.4108
76.7900 659.1810
76.8000 650.8438
76.8100 648.9394
76.8200 680.0170
76.8300 665.8422
76.8400 686.3696
76.8500 824.7656
76.8600 820.6558
76.8700 762.4734
76.8800 679.1500
76.8900 523.5168
76.9000 565.5384
76.9100 721.2860
76.9200 630.8086
76.9300 686.7116
76.9400 768.2798
76.9500 694.2124
76.9600 631.8162
76.9700 614.4380
76.9800 655.8726
76.9900 688.1792
77.0000 644.6716
77.0100 586.2924
77.0200 758.0346
77.0300 760.8572
77.0400 680.3044
77.0500 633.8838
77.0600 615.5598
77.0700 658.4900
77.0800 775.8730
77.0900 728.9752
77.1000 713.3770
77.1100 739.9946
77.1200 631.9740
77.1300 668.4874
77.1400 760.5636
77.1500 716.8016
77.1600 668.5576
77.1700 626.8242
77.1800 600.0592
77.1900 630.7470
77.2000 724.9396
77.2100 854.5570
77.2200 752.3452
77.2300 739.1088
77.2400 756.2780
77.2500 651.1810
77.2600 690.3790
77.2700 732.7428
77.2800 652.8268
77.2900 645.4798
77.3000 637.3768
77.3100 603.5568
77.3200 579.2086
77.3300 674.3662
77.3400 825.4508
77.3500 856.1220
77.3600 841.1612
77.3700 788.2718
77.3800 693.5074
77.3900 649.9018
77.4000 617.3978
77.4100 590.6958
77.4200 666.4078
77.4300 714.9182
77.4400 725.5754
77.4500 739.6414
77.4600 814.2504
77.4700 853.4624
77.4800 731.4014
77.4900 632.9608
77.5000 613.8658
77.5100 686.3598
77.5200 649.3280
77.5300 698.6598
77.5400 813.9340
77.5500 779.9902
77.5600 728.5874
77.5700 703.4784
77.5800 741.9458
77.5900 716.5506
77.6000 686.3284
77.6100 695.4548
77.6200 759.5804
77.6300 759.1338
77.6400 691.6162
77.6500 680.6092
77.6600 658.1846
77.6700 646.9578
77.6800 700.4578
77.6900 704.9628
77.7000 705.9776
77.7100 739.3274
77.7200 773.2200
77.7300 795.9898
77.7400 791.8730
77.7500 713.4474
77.7600 693.2012
77.7700 707.2368
77.7800 681.3808
77.7900 701.0086
77.8000 735.3558
77.8100 758.2060
77.8200 791.6134
77.8300 747.0610
77.8400 646.0110
77.8500 811.3640
77.8600 841.1500
77.8700 762.2770
77.8800 776.6502
77.8900 805.6504
77.9000 828.0110
77.9100 662.9892
77.9200 760.4790
77.9300 819.3598
77.9400 747.9490
77.9500 777.7992
77.9600 833.9744
77.9700 887.6338
77.9800 902.2348
77.9900 768.2346
78.0000 640.8638
78.0100 713.5314
78.0200 817.4258
78.0300 840.9188
78.0400 733.9758
78.0500 654.6594
78.0600 669.5124
78.0700 749.1534
78.0800 780.5192
78.0900 834.0654
78.1000 839.6820
78.1100 675.7650
78.1200 622.8250
78.1300 670.9452
78.1400 791.8374
78.1500 707.5816
78.1600 704.4812
78.1700 815.2220
78.1800 849.6194
78.1900 875.1690
78.2000 885.0692
78.2100 846.6366
78.2200 791.8050
78.2300 770.3322
78.2400 816.0348
78.2500 729.8756
78.2600 659.3010
78.2700 654.9452
78.2800 784.6938
78.2900 787.8206
78.3000 737.4732
78.3100 825.9330
78.3200 705.1144
78.3300 585.8656
78.3400 653.9004
78.3500 658.3706
78.3600 663.9852
78.3700 688.6040
78.3800 679.7482
78.3900 644.4646
78.4000 634.7404
78.4100 767.4630
78.4200 741.3540
78.4300 693.6112
78.4400 753.4758
78.4500 664.5896
78.4600 565.3080
78.4700 528.4450
78.4800 584.3300
78.4900 629.9496
78.5000 679.3956
78.5100 826.0580
78.5200 835.2480
78.5300 769.7904
78.5400 708.0364
78.5500 667.2992
78.5600 646.9422
78.5700 659.5358
78.5800 760.3434
78.5900 777.7874
78.6000 721.2848
78.6100 742.4072
78.6200 707.0770
78.6300 638.0958
78.6400 585.3776
78.6500 666.9266
78.6600 748.2776
78.6700 742.9964
78.6800 680.8068
78.6900 630.6394
78.7000 610.6398
78.7100 616.9674
78.7200 674.5276
78.7300 729.5448
78.7400 697.9040
78.7500 796.7626
78.7600 870.8524
78.7700 801.6896
78.7800 726.9762
78.7900 726.8784
78.8000 787.6056
78.8100 722.4354
78.8200 669.0350
78.8300 638.6200
78.8400 618.2410
78.8500 629.9936
78.8600 668.0926
78.8700 725.3704
78.8800 710.0428
78.8900 696.2342
78.9000 721.6042
78.9100 820.5150
78.9200 831.3826
78.9300 780.9442
78.9400 643.6590
78.9500 647.3788
78.9600 730.0350
78.9700 851.9346
78.9800 828.6884
78.9900 767.9390
79.0000 717.9862
79.0100 688.0602
79.0200 650.9562
79.0300 640.2752
79.0400 762.9750
79.0500 797.9690
79.0600 788.3930
79.0700 788.2570
79.0800 684.1788
79.0900 588.6604
79.1000 560.4630
79.1100 670.6226
79.1200 713.4080
79.1300 692.5916
79.1400 699.1668
79.1500 631.7444
79.1600 582.5464
79.1700 686.3642
79.1800 641.0764
79.1900 590.6910
79.2000 616.3456
79.2100 576.4174
79.2200 528.3988
79.2300 513.3896
79.2400 619.7890
79.2500 588.5080
79.2600 495.0320
79.2700 493.8824
79.2800 671.5766
79.2900 740.0618
79.3000 538.0780
79.3100 559.8448
79.3200 604.8810
79.3300 604.1056
79.3400 554.6758
79.3500 595.4456
79.3600 679.2336
79.3700 693.1030
79.3800 744.3028
79.3900 766.6820
79.4000 704.4098
79.4100 737.3290
79.4200 712.8904
79.4300 625.9212
79.4400 774.7868
79.4500 803.4214
79.4600 739.7008
79.4700 759.6680
79.4800 759.0640
79.4900 716.4684
79.5000 620.3614
79.5100 647.1304
79.5200 681.0986
79.5300 665.7592
79.5400 592.1408
79.5500 543.6878
79.5600 549.6714
79.5700 652.0292
79.5800 727.3666
79.5900 738.8732
79.6000 644.5866
79.6100 589.7648
79.6200 599.2200
79.6300 671.8742
79.6400 655.4630
79.6500 638.7598
79.6600 643.3626
79.6700 671.4342
79.6800 707.3288
79.6900 726.6702
79.7000 693.3286
79.7100 634.5090
79.7200 598.6814
79.7300 613.6366
79.7400 624.1118
79.7500 700.8878
79.7600 824.0828
79.7700 845.2150
79.7800 736.6650
79.7900 600.9344
79.8000 773.4228
79.8100 725.4616
79.8200 639.0462
79.8300 625.2266
79.8400 658.7432
79.8500 710.7714
79.8600 750.7542
79.8700 685.7890
79.8800 640.3470
79.8900 638.4500
79.9000 700.4206
79.9100 747.8472
79.9200 753.8634
79.9300 693.0502
79.9400 626.8628
79.9500 636.3876
79.9600 727.0756
79.9700 599.8390
79.9800 572.5560
79.9900 609.0902
80.0000 588.3728
80.0100 708.9494
80.0200 791.5540
80.0300 655.6476
80.0400 658.5780
80.0500 702.7440
80.0600 739.7610
80.0700 743.3932
80.0800 682.1866
80.0900 604.3402
80.1000 645.4074
80.1100 659.3428
80.1200 666.4824
80.1300 702.2978
80.1400 714.2912
80.1500 704.7760
80.1600 691.3670
80.1700 791.0524
80.1800 811.6460
80.1900 759.9642
80.2000 787.7674
80.2100 788.5978
80.2200 769.0526
80.2300 742.9974
80.2400 633.7502
80.2500 546.9184
80.2600 541.8772
80.2700 512.5508
80.2800 548.7366
80.2900 654.5950
80.3000 752.5616
80.3100 674.2426
80.3200 555.6278
80.3300 615.7266
80.3400 665.0244
80.3500 690.2086
80.3600 682.6844
80.3700 636.1104
80.3800 612.5316
80.3900 628.0880
80.4000 660.6930
80.4100 693.0156
80.4200 701.4832
80.4300 640.1014
80.4400 566.2010
80.4500 558.4014
80.4600 678.8778
80.4700 707.4292
80.4800 691.3476
80.4900 643.2466
80.5000 550.2350
80.5100 581.0910
80.5200 693.4418
80.5300 749.3638
80.5400 649.0932
80.5500 564.7546
80.5600 664.1152
80.5700 738.8698
80.5800 710.9088
80.5900 581.1972
80.6000 612.9972
80.6100 635.6042
80.6200 617.8136
80.6300 563.8014
80.6400 548.1830
80.6500 552.0994
80.6600 668.2744
80.6700 728.2810
80.6800 734.3372
80.6900 678.4066
80.7000 647.7832
80.7100 555.9472
80.7200 473.7434
80.7300 676.1416
80.7400 703.6312
80.7500 665.5138
80.7600 750.6128
80.7700 796.1502
80.7800 737.9008
80.7900 564.2442
80.8000 618.2092
80.8100 652.2224
80.8200 622.7426
80.8300 669.4892
80.8400 627.5968
80.8500 575.5524
80.8600 646.3754
80.8700 700.6084
80.8800 712.2566
80.8900 668.8166
80.9000 669.8348
80.9100 656.1416
80.9200 610.8294
80.9300 549.6478
80.9400 595.4706
80.9500 674.9862
80.9600 635.7646
80.9700 664.3548
80.9800 706.1336
80.9900 710.5300
81.0000 732.7024
81.0100 680.8696
81.0200 571.8902
81.0300 666.9480
81.0400 672.4218
81.0500 624.9692
81.0600 698.5344
81.0700 696.8556
81.0800 684.8792
81.0900 727.9476
81.1000 686.9558
81.1100 670.1122
81.1200 706.5148
81.1300 662.0394
81.1400 587.0768
81.1500 546.6434
81.1600 683.6048
81.1700 716.9764
81.1800 696.1384
81.1900 694.9270
81.2000 789.1200
81.2100 803.0984
81.2200 674.8544
81.2300 698.0052
81.2400 744.5376
81.2500 747.1956
81.2600 595.1630
81.2700 645.3310
81.2800 751.2626
81.2900 691.8452
81.3000 665.2422
81.3100 680.6574
81.3200 724.7738
81.3300 638.5624
81.3400 700.2010
81.3500 889.7420
81.3600 865.4912
81.3700 750.7742
81.3800 629.3294
81.3900 601.2796
81.4000 633.1292
81.4100 648.2778
81.4200 609.4986
81.4300 685.4572
81.4400 735.8808
81.4500 704.4498
81.4600 554.8918
81.4700 515.5218
81.4800 551.2234
81.4900 564.6758
81.5000 688.6298
81.5100 758.9788
81.5200 634.6756
81.5300 532.7490
81.5400 543.7004
81.5500 675.6138
81.5600 763.1614
81.5700 753.8806
81.5800 695.7314
81.5900 694.9128
81.6000 718.5736
81.6100 703.6182
81.6200 600.9408
81.6300 667.9958
81.6400 742.6500
81.6500 758.6996
81.6600 760.7588
81.6700 772.9034
81.6800 790.7272
81.6900 563.4430
81.7000 529.8194
81.7100 597.0592
81.7200 693.6218
81.7300 657.6902
81.7400 631.1598
81.7500 667.5424
81.7600 611.1440
81.7700 569.4208
81.7800 590.0964
81.7900 744.8624
81.8000 724.1128
81.8100 637.1614
81.8200 647.4712
81.8300 657.4516
81.8400 642.2154
81.8500 594.0164
81.8600 670.5010
81.8700 674.2076
81.8800 613.7372
81.8900 652.2232
81.9000 702.8280
81.9100 731.1118
81.9200 698.6288
81.9300 705.8324
81.9400 712.9516
81.9500 681.3344
81.9600 567.1120
81.9700 543.0664
81.9800 619.9646
81.9900 602.5712
82.0000 669.3988
82.0100 744.1958
82.0200 648.2180
82.0300 658.0952
82.0400 667.8088
82.0500 597.4736
82.0600 623.9952
82.0700 650.9104
82.0800 647.5104
82.0900 645.7752
82.1000 609.0870
82.1100 578.6916
82.1200 653.1606
82.1300 640.0306
82.1400 576.3914
82.1500 514.1360
82.1600 636.9032
82.1700 724.6558
82.1800 695.5166
82.1900 669.7030
82.2000 703.9132
82.2100 759.2948
82.2200 717.4520
82.2300 647.7346
82.2400 610.8240
82.2500 672.7948
82.2600 739.0226
82.2700 780.9908
82.2800 776.1228
82.2900 694.4506
82.3000 623.5544
82.3100 612.0704
82.3200 749.8188
82.3300 767.6542
82.3400 694.4108
82.3500 583.5360
82.3600 568.1552
82.3700 529.1716
82.3800 424.7976
82.3900 530.1506
82.4000 572.0472
82.4100 563.3420
82.4200 802.5522
82.4300 842.8496
82.4400 758.2428
82.4500 708.9554
82.4600 695.2828
82.4700 661.5790
82.4800 590.5250
82.4900 700.3268
82.5000 755.2286
82.5100 710.7052
82.5200 699.3614
82.5300 647.5462
82.5400 585.0898
82.5500 685.5116
82.5600 697.4544
82.5700 684.7326
82.5800 690.8238
82.5900 757.1166
82.6000 792.0550
82.6100 771.9606
82.6200 759.1246
82.6300 703.1656
82.6400 643.0612
82.6500 677.6834
82.6600 737.6182
82.6700 744.6570
82.6800 634.7992
82.6900 669.4270
82.7000 702.9210
82.7100 681.7632
82.7200 615.7090
82.7300 630.9620
82.7400 705.3588
82.7500 763.5250
82.7600 683.4204
82.7700 590.8306
82.7800 627.5936
82.7900 676.0048
82.8000 710.2748
82.8100 726.3592
82.8200 779.7290
82.8300 764.0996
82.8400 693.1198
82.8500 668.5772
82.8600 614.5710
82.8700 570.5186
82.8800 598.2580
82.8900 652.6508
82.9000 654.3768
82.9100 585.2384
82.9200 665.6668
82.9300 651.9804
82.9400 545.3050
82.9500 572.2694
82.9600 584.3934
82.9700 599.0308
82.9800 668.6508
82.9900 670.2176
83.0000 603.5370
83.0100 493.6830
83.0200 647.5120
83.0300 766.0432
83.0400 766.2820
83.0500 700.8824
83.0600 643.7224
83.0700 608.6576
83.0800 606.0644
83.0900 632.9142
83.1000 657.6772
83.1100 662.5378
83.1200 723.9576
83.1300 770.9560
83.1400 774.7006
83.1500 732.1260
83.1600 681.5436
83.1700 661.4598
83.1800 740.8742
83.1900 676.6478
83.2000 603.8972
83.2100 657.2128
83.2200 706.5264
83.2300 720.3430
83.2400 701.1040
83.2500 748.8046
83.2600 797.5614
83.2700 801.1422
83.2800 671.8676
83.2900 668.7194
83.3000 694.3812
83.3100 636.0648
83.3200 674.0670
83.3300 693.6440
83.3400 653.0220
83.3500 693.0964
83.3600 711.8572
83.3700 715.8252
83.3800 786.3314
83.3900 688.7126
83.4000 548.9104
83.4100 694.6202
83.4200 791.1812
83.4300 774.5744
83.4400 613.4474
83.4500 625.7540
83.4600 700.6384
83.4700 758.2482
83.4800 628.4174
83.4900 609.1092
83.5000 625.5652
83.5100 529.2928
83.5200 555.8606
83.5300 635.5532
83.5400 704.4092
83.5500 605.2018
83.5600 552.2210
83.5700 585.1472
83.5800 542.7116
83.5900 509.8666
83.6000 529.1302
83.6100 676.5416
83.6200 641.6056
83.6300 592.8502
83.6400 657.1038
83.6500 615.0610
83.6600 610.9656
83.6700 662.9982
83.6800 592.1108
83.6900 568.9996
83.7000 569.0974
83.7100 492.1110
83.7200 524.2204
83.7300 589.0542
83.7400 612.5174
83.7500 642.4962
83.7600 611.0798
83.7700 520.5780
83.7800 556.8504
83.7900 556.3626
83.8000 538.5708
83.8100 623.3410
83.8200 623.8350
83.8300 599.8088
83.8400 621.9962
83.8500 602.1718
83.8600 610.4156
83.8700 666.9782
83.8800 641.3928
83.8900 596.0788
83.9000 566.0868
83.9100 612.0434
83.9200 605.3688
83.9300 597.4508
83.9400 656.0858
83.9500 568.6906
83.9600 533.3158
83.9700 644.8644
83.9800 629.6642
83.9900 619.3856
84.0000 635.8540
84.0100 634.8244
84.0200 631.6742
84.0300 630.1678
84.0400 632.8240
84.0500 627.9820
84.0600 590.4892
84.0700 517.2080
84.0800 584.5360
84.0900 596.6756
84.1000 540.9226
84.1100 613.9942
84.1200 672.2788
84.1300 652.5210
84.1400 468.0954
84.1500 481.2844
84.1600 526.3600
84.1700 474.3690
84.1800 467.2778
84.1900 512.6930
84.2000 584.9028
84.2100 541.4506
84.2200 547.5286
84.2300 583.7074
84.2400 560.7876
84.2500 516.4902
84.2600 535.3448
84.2700 693.7160
84.2800 755.3924
84.2900 736.5106
84.3000 656.7176
84.3100 622.7608
84.3200 560.4348
84.3300 492.0140
84.3400 505.3382
84.3500 537.0580
84.3600 548.8796
84.3700 504.4964
84.3800 481.8890
84.3900 500.2716
84.4000 558.8952
84.4100 561.4738
84.4200 564.2884
84.4300 574.2272
84.4400 390.1602
84.4500 460.6826
84.4600 592.8096
84.4700 567.5610
84.4800 627.9708
84.4900 684.5764
84.5000 680.5774
84.5100 640.8496
84.5200 635.3000
84.5300 657.6726
84.5400 628.4450
84.5500 643.6170
84.5600 638.1444
84.5700 500.3890
84.5800 473.2586
84.5900 534.8102
84.6000 662.5910
84.6100 607.3314
84.6200 564.9120
84.6300 557.1296
84.6400 488.6534
84.6500 439.9134
84.6600 450.5962
84.6700 577.5786
84.6800 509.8460
84.6900 432.2764
84.7000 494.5196
84.7100 578.2382
84.7200 598.9996
84.7300 539.0600
84.7400 474.1094
84.7500 464.1972
84.7600 493.0264
84.7700 519.0392
84.7800 559.8444
84.7900 625.7624
84.8000 727.2776
84.8100 743.2760
84.8200 705.6186
84.8300 631.7258
84.8400 572.0124
84.8500 638.2332
84.8600 739.6624
84.8700 620.4924
84.8800 539.1388
84.8900 514.1034
84.9000 551.8672
84.9100 568.3014
84.9200 620.1404
84.9300 713.7166
84.9400 675.4506
84.9500 676.7808
84.9600 711.5008
84.9700 658.8090
84.9800 593.2818
84.9900 571.3360
85.0000 651.0124
85.0100 544.5866
85.0200 524.6472
85.0300 712.9974
85.0400 679.8740
85.0500 689.6410
85.0600 777.3376
85.0700 831.7066
85.0800 776.8822
85.0900 670.3190
85.1000 597.4400
85.1100 657.1524
85.1200 709.5350
85.1300 674.1576
85.1400 707.6816
85.1500 731.6148
85.1600 720.9638
85.1700 674.1182
85.1800 604.1280
85.1900 576.0442
85.2000 703.1968
85.2100 703.9946
85.2200 700.1000
85.2300 774.7984
85.2400 684.2328
85.2500 621.6354
85.2600 649.0882
85.2700 718.1856
85.2800 730.2948
85.2900 705.0632
85.3000 659.0432
85.3100 650.3508
85.3200 636.0076
85.3300 586.0058
85.3400 566.4064
85.3500 607.3392
85.3600 714.5676
85.3700 815.8506
85.3800 762.0846
85.3900 627.4002
85.4000 631.6802
85.4100 643.2186
85.4200 631.1264
85.4300 580.0378
85.4400 641.8042
85.4500 729.2656
85.4600 795.4034
85.4700 678.8506
85.4800 612.5292
85.4900 602.1872
85.5000 598.0608
85.5100 660.4314
85.5200 726.0376
85.5300 709.6494
85.5400 644.8608
85.5500 595.0498
85.5600 593.9512
85.5700 606.9342
85.5800 627.3724
85.5900 658.1334
85.6000 713.5960
85.6100 703.1328
85.6200 663.8882
85.6300 655.3536
85.6400 614.9726
85.6500 611.2628
85.6600 669.9544
85.6700 593.1992
85.6800 512.3780
85.6900 478.8946
85.7000 536.2588
85.7100 516.1640
85.7200 484.5900
85.7300 582.8836
85.7400 552.0404
85.7500 517.3152
85.7600 577.4862
85.7700 617.1632
85.7800 650.8916
85.7900 656.6690
85.8000 514.3130
85.8100 433.0174
85.8200 458.4654
85.8300 636.1864
85.8400 646.3894
85.8500 593.8672
85.8600 580.4120
85.8700 632.5766
85.8800 696.1360
85.8900 736.3122
85.9000 685.6876
85.9100 605.5334
85.9200 529.7420
85.9300 511.2806
85.9400 539.7000
85.9500 565.9796
85.9600 536.5098
85.9700 437.4564
85.9800 462.6700
85.9900 646.5314
86.0000 517.1564
86.0100 479.5148
86.0200 566.9234
86.0300 641.2432
86.0400 564.5834
86.0500 491.9580
86.0600 618.8476
86.0700 660.2064
86.0800 653.0562
86.0900 624.7862
86.1000 636.8980
86.1100 603.6188
86.1200 540.3500
86.1300 567.0624
86.1400 583.0952
86.1500 585.9114
86.1600 489.6714
86.1700 567.6902
86.1800 656.8774
86.1900 663.0240
86.2000 623.7690
86.2100 589.5966
86.2200 570.4250
86.2300 548.1238
86.2400 562.9818
86.2500 581.6426
86.2600 543.1324
86.2700 552.6172
86.2800 608.7392
86.2900 698.7470
86.3000 646.0276
86.3100 549.0248
86.3200 457.1020
86.3300 504.2670
86.3400 464.5784
86.3500 424.8936
86.3600 598.1130
86.3700 586.7780
86.3800 538.2762
86.3900 588.9658
86.4000 584.1984
86.4100 553.3614
86.4200 519.6998
86.4300 545.6722
86.4400 553.2308
86.4500 553.8998
86.4600 606.5274
86.4700 626.8164
86.4800 629.8188
86.4900 633.4936
86.5000 630.1870
86.5100 603.8640
86.5200 541.3000
86.5300 439.1260
86.5400 487.0962
86.5500 632.0666
86.5600 633.4406
86.5700 595.1948
86.5800 534.4272
86.5900 462.2578
86.6000 565.7354
86.6100 596.1586
86.6200 443.9086
86.6300 451.1672
86.6400 508.8772
86.6500 570.3356
86.6600 576.4884
86.6700 601.0638
86.6800 611.8178
86.6900 552.9568
86.7000 558.6266
86.7100 594.7318
86.7200 634.8940
86.7300 628.4026
86.7400 592.5850
86.7500 548.2136
86.7600 556.5412
86.7700 536.1268
86.7800 504.9324
86.7900 511.6220
86.8000 585.4302
86.8100 639.2910
86.8200 609.7534
86.8300 598.2906
86.8400 562.6104
86.8500 507.5708
86.8600 528.9968
86.8700 563.3736
86.8800 563.4240
86.8900 453.3102
86.9000 474.0314
86.9100 520.6026
86.9200 496.7194
86.9300 479.9150
86.9400 465.2630
86.9500 467.4110
86.9600 571.1666
86.9700 599.0384
86.9800 560.0446
86.9900 536.7012
87.0000 590.4860
87.0100 653.3806
87.0200 512.1552
87.0300 475.2704
87.0400 544.4668
87.0500 682.8360
87.0600 499.9910
87.0700 442.0688
87.0800 510.1794
87.0900 468.4194
87.1000 518.9340
87.1100 578.0606
87.1200 530.6706
87.1300 553.1368
87.1400 566.4772
87.1500 524.2230
87.1600 456.8910
87.1700 548.6292
87.1800 751.3618
87.1900 481.9606
87.2000 447.9844
87.2100 516.7232
87.2200 506.8820
87.2300 543.1200
87.2400 579.6524
87.2500 581.8808
87.2600 551.6662
87.2700 525.3352
87.2800 535.9404
87.2900 665.4324
87.3000 564.6710
87.3100 410.4020
87.3200 546.1182
87.3300 550.8624
87.3400 530.0100
87.3500 568.5654
87.3600 616.3638
87.3700 593.8296
87.3800 520.2076
87.3900 582.6478
87.4000 497.4438
87.4100 374.0028
87.4200 494.4486
87.4300 473.7726
87.4400 437.7004
87.4500 504.5656
87.4600 500.1322
87.4700 558.5124
87.4800 699.4846
87.4900 705.8072
87.5000 633.3846
87.5100 536.4068
87.5200 505.6662
87.5300 529.5594
87.5400 518.8744
87.5500 392.4658
87.5600 374.6240
87.5700 449.6802
87.5800 577.8130
87.5900 510.5012
87.6000 454.4174
87.6100 466.3320
87.6200 587.2782
87.6300 569.8106
87.6400 529.0706
87.6500 613.6640
87.6600 593.5228
87.6700 578.7468
87.6800 615.0418
87.6900 556.9448
87.7000 471.7860
87.7100 408.0494
87.7200 468.1344
87.7300 539.4398
87.7400 584.0368
87.7500 561.7258
87.7600 540.5328
87.7700 520.5262
87.7800 499.3504
87.7900 476.0384
87.8000 445.1038
87.8100 419.8508
87.8200 456.7176
87.8300 501.5562
87.8400 509.3950
87.8500 412.3118
87.8600 386.6780
87.8700 425.4878
87.8800 515.6056
87.8900 501.7840
87.9000 449.8464
87.9100 397.4024
87.9200 416.5650
87.9300 461.9070
87.9400 515.6376
87.9500 561.4978
87.9600 604.7796
87.9700 616.7794
87.9800 569.4630
87.9900 548.6654
88.0000 569.0428
88.0100 611.7252
88.0200 537.2106
88.0300 490.3772
88.0400 481.1840
88.0500 450.8986
88.0600 479.4514
88.0700 536.8066
88.0800 599.6356
88.0900 638.5152
88.1000 567.6196
88.1100 404.0188
88.1200 567.4522
88.1300 677.2050
88.1400 687.8068
88.1500 678.2114
88.1600 659.2500
88.1700 616.5218
88.1800 529.6682
88.1900 507.2498
88.2000 500.8772
88.2100 487.4642
88.2200 538.5492
88.2300 530.6966
88.2400 494.9408
88.2500 589.2178
88.2600 555.7998
88.2700 480.4826
88.2800 506.9396
88.2900 508.9488
88.3000 516.1284
88.3100 556.1632
88.3200 646.4512
88.3300 695.3918
88.3400 688.0556
88.3500 667.6202
88.3600 591.3990
88.3700 515.1786
88.3800 536.3598
88.3900 523.9514
88.4000 548.8406
88.4100 649.9218
88.4200 580.9732
88.4300 473.0518
88.4400 410.9308
88.4500 569.8356
88.4600 628.0674
88.4700 597.7350
88.4800 576.2206
88.4900 623.9844
88.5000 644.8678
88.5100 562.4502
88.5200 590.1632
88.5300 583.6108
88.5400 520.3112
88.5500 599.5910
88.5600 632.5882
88.5700 619.8722
88.5800 627.9738
88.5900 607.0938
88.6000 589.1074
88.6100 604.6454
88.6200 561.3786
88.6300 504.6432
88.6400 471.2642
88.6500 550.8196
88.6600 628.3130
88.6700 657.1468
88.6800 570.9074
88.6900 544.2600
88.7000 556.2114
88.7100 572.0564
88.7200 571.2320
88.7300 557.1744
88.7400 548.1434
88.7500 661.3810
88.7600 753.1194
88.7700 751.8216
88.7800 537.7102
88.7900 544.7432
88.8000 645.8898
88.8100 627.9300
88.8200 568.5978
88.8300 523.9748
88.8400 526.8086
88.8500 546.3686
88.8600 571.0264
88.8700 576.0952
88.8800 483.4408
88.8900 530.4710
88.9000 637.1204
88.9100 478.3626
88.9200 488.6672
88.9300 531.4178
88.9400 532.8716
88.9500 569.3022
88.9600 558.1910
88.9700 506.9744
88.9800 577.9164
88.9900 616.0990
89.0000 633.4026
89.0100 687.0728
89.0200 599.4348
89.0300 495.1280
89.0400 485.1928
89.0500 521.6516
89.0600 547.7604
89.0700 546.4884
89.0800 485.4304
89.0900 410.6246
89.1000 391.3546
89.1100 596.1824
89.1200 559.6682
89.1300 464.5804
89.1400 507.8756
89.1500 543.6398
89.1600 579.5290
89.1700 615.0572
89.1800 614.3824
89.1900 580.4534
89.2000 529.2474
89.2100 497.5306
89.2200 505.3496
89.2300 524.5848
89.2400 524.9704
89.2500 565.0428
89.2600 610.7438
89.2700 629.8870
89.2800 493.5454
89.2900 451.9144
89.3000 517.1696
89.3100 550.5782
89.3200 596.3228
89.3300 615.6706
89.3400 546.5690
89.3500 556.8032
89.3600 585.1546
89.3700 592.7178
89.3800 588.6294
89.3900 534.6442
89.4000 453.7762
89.4100 471.8414
89.4200 468.8566
89.4300 466.3386
89.4400 521.7740
89.4500 540.6988
89.4600 546.4540
89.4700 551.7360
89.4800 512.5572
89.4900 523.1842
89.5000 574.5632
89.5100 485.7346
89.5200 555.4670
89.5300 647.6026
89.5400 438.0430
89.5500 458.7670
89.5600 544.4790
89.5700 539.6078
89.5800 471.2382
89.5900 447.9276
89.6000 499.8238
89.6100 545.5188
89.6200 556.6040
89.6300 550.8624
89.6400 573.4450
89.6500 596.8026
89.6600 587.3566
89.6700 511.3928
89.6800 479.8670
89.6900 529.4422
89.7000 663.0742
89.7100 742.2626
89.7200 635.0598
89.7300 442.8524
89.7400 480.7766
89.7500 565.8476
89.7600 635.6148
89.7700 486.6636
89.7800 560.4596
89.7900 610.3340
89.8000 541.9656
89.8100 549.8744
89.8200 492.9652
89.8300 414.9074
89.8400 551.1876
89.8500 545.7862
89.8600 471.0172
89.8700 463.0012
89.8800 557.9164
89.8900 585.1298
89.9000 465.7856
89.9100 536.9440
89.9200 584.3300
89.9300 568.4228
89.9400 563.4806
89.9500 574.2490
89.9600 597.9338
89.9700 633.3250
89.9800 641.9900
89.9900 626.3116
90.0000 588.9222
